
Predictions were generated on 01-Aug-2026 at 04:46:22 using OpenFAST, compiled on Apr 11 2026 at 22:27:10 as a 64-bit application using single precision at commit v5.0.0
 linked with  NWTC Subroutine Library; ElastoDyn; InflowWind; AeroDyn; ServoDyn

Description from the FAST input file: FAST Certification Test #18: NREL 5.0 MW Baseline Wind Turbine (Onshore)

Time	ConvIter	ConvError	NumUJac	Wind1VelX	Wind1VelY	Wind1VelZ	OoPDefl1	IPDefl1	TwstDefl1	BldPitch1	Azimuth	RotSpeed	GenSpeed	TTDspFA	TTDspSS	TTDspTwst	Spn2MLxb1	Spn2MLyb1	RootFxb1	RootFyb1	RootFzb1	RootMxb1	RootMyb1	RootMzb1	RotTorq	LSSGagMya	LSSGagMza	YawBrFxp	YawBrFyp	YawBrFzp	YawBrMxp	YawBrMyp	YawBrMzp	TwrBsFxt	TwrBsFyt	TwrBsFzt	TwrBsMxt	TwrBsMyt	TwrBsMzt	GenPwr	GenTq
(s)	(-)	(-)	(-)	(m/s)	(m/s)	(m/s)	(m)	(m)	(deg)	(deg)	(deg)	(rpm)	(rpm)	(m)	(m)	(deg)	(kN-m)	(kN-m)	(kN)	(kN)	(kN)	(kN-m)	(kN-m)	(kN-m)	(kN-m)	(kN-m)	(kN-m)	(kN)	(kN)	(kN)	(kN-m)	(kN-m)	(kN-m)	(kN)	(kN)	(kN)	(kN-m)	(kN-m)	(kN-m)	(kW)	(kN-m)
    0.0000	0.00000000	0.00000000	1.00000000	11.3999996	-0.00000000	0.00000000	0.00000000	0.00000000	0.00000000	0.00000000	0.00000000	12.1000013	1173.70007	0.00000000	-0.00000000	0.00000000	9.96915913	-35.7463951	29.0530033	0.952139676	452.662842	9.71083832	321.403809	2.06506324	-0.152523420E-2	-1928.95166	-40.2309265	14.4867668	1.81498528	-3323.80298	38.3886948	-392.816010	0.488824444E-3	-6.31789064	-1.18648374	-6731.22314	21.6840229	-242.501556	0.488824444E-3	5000.00000	43.0935440
    0.1000	3.00000000	0.140117277E-5	0.00000000	11.3999996	-0.00000000	0.00000000	0.475882113	-0.635175705E-1	0.00000000	0.00000000	7.24245882	11.9547615	1119.91687	-0.255984982E-3	-0.327624875E-3	0.00000000	-156.611588	221.301758	49.2805099	-65.2045441	455.687500	948.170959	1251.94580	-1.81551600	2845.87573	-2084.78906	148.037323	4.49133110	94.9657288	-3355.84155	2664.10693	-705.564758	-277.222626	36.2664642	-28.6685753	-6763.23828	104.694122	911.045105	-277.229126	4790.35840	43.2692947
    0.2000	3.00000000	0.694007667E-6	0.00000000	11.3999996	-0.00000000	0.00000000	1.56161916	-0.397792339	0.00000000	0.00000000	14.3156929	11.7096968	1120.26904	0.108359440E-2	-0.275648851E-2	0.00000000	285.067841	768.372192	126.232971	-74.7129745	450.546661	2017.72144	3987.51465	-28.5772095	5208.65381	-2470.78955	540.540833	34.9660301	47.2086334	-3440.53247	5089.99902	-1325.59180	-425.772919	57.0590935	174.631744	-6847.92334	-5710.40430	1642.47168	-425.784180	4799.64355	43.3397636
    0.3000	3.00000000	0.187464798E-5	0.00000000	11.3999996	-0.00000000	0.00000000	2.90268016	-0.655602276	0.00000000	0.00000000	21.4161930	11.9805288	1152.37756	0.999262929E-2	-0.774901267E-2	0.00000000	478.674957	1413.40405	199.698090	-98.9360504	452.394409	2888.04614	6652.18359	-55.1691513	6460.75537	-2893.61694	897.812012	127.661491	42.8136444	-3521.03638	6310.69971	-1748.43005	-766.726440	-7.90340137	227.041565	-6928.44580	-6857.88281	904.580383	-766.631653	4766.37305	41.8397636
    0.4000	3.00000000	0.618016611E-5	0.00000000	11.3999996	-0.00000000	0.00000000	4.28799677	-0.698784292	0.00000000	0.00000000	28.6193371	11.9652119	1191.87036	0.313579924E-1	-0.148613360E-1	0.00000000	216.641708	2069.31958	217.300980	-135.116058	443.131775	3095.50586	7946.73730	-51.1774368	5291.25000	-3320.68164	1335.66260	190.150330	85.2441101	-3559.30151	5045.89795	-2242.92236	-1012.70483	25.0433311	53.6750145	-6966.59619	-1046.19739	4376.38330	-1012.41272	5030.41455	42.6941757
    0.5000	3.00000000	0.115419953E-4	0.00000000	11.3999996	-0.00000000	0.00000000	5.22605896	-0.738388956	0.00000000	0.00000000	35.7736893	11.9150372	1180.52954	0.661652833E-1	-0.229156185E-1	0.00000000	165.634720	2542.27808	217.869812	-127.131859	438.440857	2839.19214	8592.06055	-49.8668747	2074.87036	-3415.72852	1950.18262	209.002884	15.2224579	-3553.91821	2003.90747	-2645.72363	-789.332336	191.572144	-22.5050507	-6961.29834	2714.26099	13086.1416	-789.043091	5067.92578	43.4269257
    0.6000	3.00000000	0.834931052E-5	0.00000000	11.3999996	-0.00000000	0.00000000	5.41780376	-0.755199850	0.00000000	0.00000000	42.9072723	11.8087683	1134.47449	0.113951959	-0.298761427E-1	0.00000000	28.5472565	2614.33862	251.185165	-172.080551	446.351196	3402.35913	9518.96582	-31.4947243	1900.09253	-3071.37158	2579.72314	305.214508	29.2143459	-3521.57495	1826.17566	-2414.40430	-537.319092	262.227814	-91.4981232	-6929.20752	5390.29980	20569.6465	-536.660156	4875.77344	43.4761276
    0.7000	3.00000000	0.243318982E-5	0.00000000	11.3999996	-0.00000000	0.00000000	5.24840927	-0.944062591	0.00000000	0.00000000	49.9075890	11.5619678	1104.67468	0.174367756	-0.357086882E-1	0.00000000	405.274078	2551.20068	270.290314	-185.906662	457.566559	4311.96240	9771.28320	-63.3636169	3294.05054	-2453.16479	3088.40625	453.254456	5.63928795	-3474.39282	3285.76245	-1789.73267	-207.643539	274.070404	-4.11185455	-6882.58057	3300.91626	27873.9316	-206.007065	4630.41357	42.4019699
    0.8000	3.00000000	0.142482440E-4	0.00000000	11.3999996	-0.00000000	0.00000000	5.12558079	-1.14962220	0.00000000	0.00000000	56.8675766	11.6854429	1109.07458	0.244778007	-0.415299274E-1	0.00000000	828.412415	2518.26025	245.951630	-192.121658	467.536407	5153.94922	8965.06641	-100.616409	5386.42139	-1755.83997	3162.52710	518.912720	-4.02474117	-3435.17944	5397.79932	-1289.63733	-33.0022430	471.243500	92.1134491	-6844.18848	803.762268	41473.2734	-29.5357208	4484.42236	40.9019699
    0.9000	3.00000000	0.266454117E-4	0.00000000	11.3999996	-0.00000000	0.00000000	5.04891109	-1.12092853	0.00000000	0.00000000	63.9206505	11.7930899	1150.29919	0.319866508	-0.489762165E-1	0.00000000	734.961487	2472.03735	218.081772	-212.219406	476.051361	5284.21680	8129.62988	-87.5987549	6333.48779	-1226.15186	3031.23145	580.908203	6.83022785	-3423.61987	6315.29199	-900.832642	-74.3198547	703.061646	81.8132401	-6833.97559	1678.57251	56556.8906	-68.9269333	4480.60059	39.4019699
    1.0000	3.00000000	0.174577763E-4	0.00000000	11.3999996	-0.00000000	0.00000000	4.90626192	-0.949474633	0.00000000	0.00000000	71.0122147	11.8617134	1180.25610	0.394176930	-0.588890128E-1	0.00000000	511.666626	2386.18774	231.608200	-184.493103	501.288452	4303.68652	8278.03223	-59.6861305	4102.62500	-683.483582	2965.60474	737.132080	-58.9049301	-3442.24731	4247.67529	-319.028442	200.191574	767.276367	39.1286621	-6854.70557	4495.70654	66866.6328	205.331390	4472.66553	38.3342705
    1.1000	3.00000000	0.789447495E-5	0.00000000	11.3999996	-0.00000000	0.00000000	4.78201771	-0.716140926	0.00000000	0.00000000	78.1465378	11.8746490	1164.91614	0.464213312	-0.698152408E-1	0.00000000	82.2762146	2310.54541	265.059601	-179.994614	529.590393	3393.97754	9060.13379	-18.7937717	2105.96875	-155.811340	2848.62598	876.945190	-45.8948097	-3469.00757	2249.99609	149.687088	331.289032	853.364624	-138.235977	-6883.68262	11033.0654	77267.5547	336.106018	4587.21631	39.8342705
    1.2000	3.00000000	0.165597303E-4	0.00000000	11.3999996	-0.00000000	0.00000000	4.81685066	-0.671408057	0.00000000	0.00000000	85.2077789	11.6555748	1126.94580	0.528195262	-0.797600150E-1	0.00000000	-14.9439220	2332.58203	278.236664	-182.968781	555.766846	3258.22925	9433.32324	-12.9437447	1766.66016	218.920914	2796.73828	941.899719	-47.8921204	-3477.01733	1898.25684	216.788116	142.922684	1056.80859	-192.925949	-6893.83154	13729.8066	90246.3438	148.557983	4392.60156	39.4295311
    1.3000	3.00000000	0.581883323E-4	0.00000000	11.3999996	-0.00000000	0.00000000	4.99500418	-0.866430044	0.00000000	0.00000000	92.1743851	11.6100426	1101.26160	0.584080398	-0.867807940E-1	0.00000000	336.514160	2434.21484	269.382996	-185.449646	583.425049	3989.06372	9205.08887	-49.1293221	3290.23877	398.413757	2886.27686	1026.04199	-83.8111496	-3459.82764	3438.54541	296.828278	-307.784760	1175.54565	-73.4476395	-6878.95020	10909.3193	99960.9375	-299.655396	4129.20264	37.9295273
    1.4000	3.00000000	0.827759432E-4	0.00000000	11.3999996	-0.00000000	0.00000000	5.16383028	-1.07464397	0.00000000	0.00000000	99.1608505	11.6756124	1117.32764	0.628657401	-0.897546634E-1	0.00000000	635.164551	2522.19019	264.806702	-210.482727	598.337036	5059.45605	9107.67090	-81.8770218	5456.93359	462.489441	2914.90674	1126.85437	-54.9531021	-3440.41064	5487.85742	581.429321	-846.513428	1200.45520	-26.9516277	-6861.62793	9446.95410	105738.844	-834.840027	4023.82886	36.4295273
    1.5000	3.00000000	0.459771327E-4	0.00000000	11.3999996	-0.00000000	0.00000000	5.24205732	-1.16812086	0.00000000	0.00000000	106.191940	11.7784939	1156.28003	0.659567058	-0.891833752E-1	0.00000000	795.562927	2564.82007	280.092957	-210.420486	611.774353	5389.52393	9528.14551	-97.5944290	5238.00293	691.023682	2719.00488	1165.29907	-60.0618629	-3441.59204	5284.81250	779.476685	-786.348206	1282.26355	-30.1865768	-6864.13770	9499.53125	111481.180	-774.333252	3992.63452	34.9295273
    1.6000	3.00000000	0.208667843E-4	0.00000000	11.3999996	-0.00000000	0.00000000	5.29976463	-1.06403196	0.00000000	0.00000000	113.298798	11.8852043	1173.68335	0.676806509	-0.858725384E-1	0.00000000	575.562195	2584.28589	297.742706	-207.602829	626.331909	4948.64551	10026.5020	-73.2226715	3403.08057	1099.59741	2480.15186	1182.91199	-78.0937271	-3466.14404	3542.04980	804.087280	-289.124817	1340.69849	-83.0941849	-6889.44434	10975.9746	115019.961	-279.316254	4169.03271	35.9322128
    1.7000	3.00000000	0.799862610E-4	0.00000000	11.3999996	-0.00000000	0.00000000	5.39769220	-0.913344681	0.00000000	0.00000000	120.405670	11.7756519	1154.53760	0.680883527	-0.806069374E-1	0.00000000	292.915436	2622.16016	298.588593	-194.651794	635.372864	4217.97314	10130.5000	-41.6562195	1782.58826	1509.42151	2322.40723	1215.39893	-79.4583435	-3500.55981	1972.25781	767.770935	106.540993	1300.75476	-145.570129	-6924.23291	12450.1562	114352.992	114.027252	4272.19873	37.4322128
    1.8000	4.00000000	0.928572376E-6	0.00000000	11.3999996	-0.00000000	0.00000000	5.49633503	-0.880304158	0.00000000	0.00000000	127.430275	11.6594839	1118.11926	0.671309769	-0.741750151E-1	0.00000000	288.729553	2669.28101	288.480774	-168.235397	647.781799	3761.66455	9929.22461	-37.5485802	1915.67480	1743.88257	2095.95752	1193.33459	-67.2082443	-3528.09619	2083.06445	667.129456	136.629166	1290.53052	-131.924438	-6951.23828	11320.7002	112930.039	143.819153	4062.92383	36.7581940
    1.9000	4.00000000	0.262683159E-6	0.00000000	11.3999996	-0.00000000	0.00000000	5.53080130	-0.899277210	0.00000000	0.00000000	134.418243	11.6457148	1106.47900	0.647946358	-0.672708228E-1	0.00000000	346.945526	2683.98315	285.491211	-157.335709	664.973389	3710.67017	9865.18164	-40.8992653	3934.98535	1807.58044	1791.17212	1125.42773	-41.8655586	-3533.06982	4010.74268	629.772278	-183.544388	1295.40344	-37.1233444	-6954.81445	7495.18164	110303.516	-174.480743	3856.60352	35.2581940
    2.0000	3.00000000	0.442828568E-4	0.00000000	11.3999996	-0.00000000	0.00000000	5.50918961	-0.888322055	0.00000000	0.00000000	141.424133	11.7292156	1132.38098	0.612236023	-0.603817441E-1	0.00000000	380.373932	2676.89307	293.689087	-134.884918	681.348267	3425.39282	10094.8672	-40.7675133	5265.45703	1821.00427	1517.83838	1084.93457	-40.8823013	-3507.54932	5300.08789	851.491821	-504.232666	1181.29541	68.2383499	-6927.72168	3561.39087	102938.039	-494.596558	3778.99243	33.7581940
    2.1000	3.00000000	0.464363766E-4	0.00000000	11.3999996	-0.00000000	0.00000000	5.49596834	-0.773047328	0.00000000	0.00000000	148.510788	11.8881941	1166.71130	0.566647708	-0.532922186E-1	0.00000000	214.712662	2668.65063	297.651184	-109.004005	696.217346	2700.22437	10259.2139	-19.7346516	4684.08887	1728.40161	1313.25085	1030.75049	-18.2467709	-3460.09741	4660.34814	1156.37244	-708.698120	1037.71863	31.2309380	-6878.41211	3932.05054	93618.2969	-700.721558	3929.85645	34.0730057
    2.2000	4.00000000	0.216235946E-6	0.00000000	11.3999996	-0.00000000	0.00000000	5.50866890	-0.603776634	0.00000000	0.00000000	155.660706	11.9142809	1175.49890	0.513959467	-0.455546938E-1	0.00000000	-75.7144165	2660.79712	290.742310	-90.5552979	712.510681	1862.29993	10133.1514	13.2654037	2943.50806	1579.27832	1130.72241	916.774841	5.19536304	-3417.37524	2884.27612	1258.95520	-743.699280	972.580627	-68.0482407	-6833.51221	6191.02344	85674.9453	-738.433105	4133.74023	35.5730324
    2.3000	4.00000000	0.815472276E-6	0.00000000	11.3999996	-0.00000000	0.00000000	5.51781559	-0.537184834	0.00000000	0.00000000	162.786194	11.8337507	1151.46875	0.456953466	-0.369055383E-1	0.00000000	-161.559601	2659.01660	283.149353	-71.8787384	726.417847	1424.09753	9972.78809	24.3284798	1779.98376	1577.93335	934.925537	814.101624	-8.51089954	-3404.91797	1766.37073	1194.98523	-627.649719	871.789734	-64.0869370	-6819.07617	5392.87305	76285.7969	-624.363281	4219.94775	37.0730553
    2.4000	3.00000000	0.981961421E-4	0.00000000	11.3999996	-0.00000000	0.00000000	5.51647854	-0.614776134	0.00000000	0.00000000	169.863861	11.7633715	1123.37476	0.398069620	-0.275219027E-1	0.00000000	-12.2914267	2667.53516	281.348236	-68.6302719	733.053833	1724.67883	9977.19141	8.51340771	2703.81323	1740.40686	738.841858	746.645569	10.3195000	-3431.57568	2647.84326	978.219727	-631.318176	706.796448	-7.03913879	-6844.10693	2562.34058	64940.3984	-628.023071	4073.91016	36.6849747
    2.5000	3.00000000	0.320049594E-5	0.00000000	11.3999996	-0.00000000	0.00000000	5.52542162	-0.749862731	0.00000000	0.00000000	176.918381	11.7754765	1125.64246	0.339621633	-0.185128395E-1	0.00000000	257.661591	2686.85986	281.618652	-61.3402481	737.040588	2179.29028	10014.0332	-22.8394547	4470.77100	1923.50977	488.631409	650.059814	39.9367104	-3486.25830	4337.86475	495.377014	-714.040771	611.273132	73.9978790	-6897.32617	-1073.46814	55593.9141	-710.307129	3924.20410	35.2653847
    2.6000	3.00000000	0.861031294E-4	0.00000000	11.3999996	-0.00000000	0.00000000	5.50981617	-0.753823578	0.00000000	0.00000000	184.022034	11.9134607	1154.88281	0.284264237	-0.110553633E-1	0.00000000	302.201691	2680.76367	279.745117	-42.9867210	737.590637	2002.41858	9972.62207	-31.0024014	5242.86768	2068.30420	195.879150	542.510803	46.3491974	-3540.36914	5087.57031	-41.5733337	-766.417969	553.232849	139.987656	-6950.26025	-3874.35376	47654.5156	-763.094727	4015.56201	35.1725883
    2.7000	4.00000000	0.386528171E-6	0.00000000	11.3999996	-0.00000000	0.00000000	5.46070671	-0.562762260	0.00000000	0.00000000	191.204605	12.0091963	1181.39490	0.234468475	-0.542288786E-2	0.00000000	9.61601448	2647.70020	272.259277	-12.4234056	731.204956	942.890442	9817.73535	4.67032194	4321.12109	2087.63843	-104.517242	477.150574	52.3275681	-3565.82666	4165.79883	-237.230194	-715.159363	428.656677	108.740013	-6974.93018	-3416.06372	38503.2227	-712.952637	4272.99902	36.5877190
    2.8000	4.00000000	0.253290892E-6	0.00000000	11.3999996	-0.00000000	0.00000000	5.42501307	-0.318573207	0.00000000	0.00000000	198.412247	12.0035381	1178.65735	0.191910908	-0.114327506E-2	0.00000000	-348.968323	2616.34888	263.898224	30.5001450	726.605286	-464.306885	9645.16211	48.0163918	2689.68091	1982.85559	-430.138489	419.884613	65.9699860	-3554.37378	2536.56763	-235.510818	-518.914551	316.889893	18.6323204	-6962.97070	-1042.66150	30525.4590	-517.758545	4437.83594	38.0877457
    2.9000	3.00000000	0.700260207E-4	0.00000000	11.3999996	-0.00000000	0.00000000	5.38045263	-0.158927277	0.00000000	0.00000000	205.595413	11.9311218	1152.66492	0.158047229	0.227178750E-2	0.00000000	-578.173401	2581.28003	265.131775	60.1651649	727.705078	-1374.94800	9671.01074	74.2560120	2334.16846	1960.77271	-780.970581	348.166229	74.1399765	-3517.06055	2181.04370	-391.182770	-383.885468	285.513245	0.427863985	-6925.28809	-845.366394	25785.4492	-383.076813	4510.88428	39.5877724
    3.0000	3.00000000	0.198294128E-4	0.00000000	11.3999996	-0.00000000	0.00000000	5.34485197	-0.158950016	0.00000000	0.00000000	212.729492	11.8625116	1134.22388	0.134541750	0.458857371E-2	0.00000000	-535.901794	2567.96826	272.218353	76.3282547	725.978699	-1517.52612	9849.04688	70.2819443	3522.49951	2028.36035	-1148.67883	309.250763	62.7041702	-3473.88647	3384.21460	-563.620483	-386.390045	248.939560	93.0784073	-6881.91211	-3915.29614	22111.2090	-385.436768	4396.13721	39.2078056
    3.1000	3.00000000	0.836222680E-4	0.00000000	11.3999996	-0.00000000	0.00000000	5.35865545	-0.252506077	0.00000000	0.00000000	219.857422	11.9185781	1143.95361	0.122590981	0.482867705E-2	0.00000000	-342.463379	2588.12500	274.316772	84.5631027	719.040894	-1235.81885	9922.31445	49.9172859	4957.33154	1983.25916	-1486.60803	308.832611	65.8277969	-3445.80835	4803.12793	-585.039673	-397.268280	192.435074	160.546753	-6853.80127	-6127.60693	19219.2832	-396.072113	4336.96582	38.3508301
    3.2000	4.00000000	0.239303802E-6	0.00000000	11.3999996	-0.00000000	0.00000000	5.40802670	-0.295667619	0.00000000	0.00000000	227.041916	12.0249729	1171.56934	0.122509830	0.175339647E-2	0.00000000	-272.484039	2614.89697	268.954224	87.0255585	707.993042	-1087.10413	9807.89746	41.6530190	5221.97314	1743.45337	-1795.71338	304.422943	74.9938202	-3444.31543	5060.04834	-628.099365	-275.891327	202.834076	140.342697	-6852.28223	-5296.59766	19549.7168	-274.625305	4505.98486	38.9061165
    3.3000	3.00000000	0.856498809E-4	0.00000000	11.3999996	-0.00000000	0.00000000	5.43623877	-0.251818448	0.00000000	0.00000000	234.274323	12.0699205	1187.11951	0.134059653	-0.510898279E-2	0.00000000	-352.035431	2623.05322	263.765991	95.4465866	689.661499	-1333.22949	9699.56348	49.9325714	4000.02979	1482.27222	-2149.80688	312.759857	48.7227249	-3463.72681	3912.84399	-810.942871	-98.9949570	255.681015	92.7667389	-6871.74707	-2925.86768	22411.5762	-97.9062271	4741.40723	40.4028473
    3.4000	3.00000000	0.286589748E-4	0.00000000	11.3999996	-0.00000000	0.00000000	5.41588688	-0.184913933	0.00000000	0.00000000	241.508591	12.0294199	1174.72437	0.156496331	-0.147367911E-1	0.00000000	-464.832092	2607.56494	263.553497	103.548714	666.616333	-1654.96484	9693.11621	61.8228798	2793.50854	1369.97876	-2535.07495	363.665894	32.5696411	-3486.69434	2737.72729	-1030.93555	-188.518097	288.244781	16.4547424	-6894.92285	539.740295	25979.8750	-187.521423	4866.06592	41.9028740
    3.5000	3.00000000	0.321686639E-4	0.00000000	11.3999996	-0.00000000	0.00000000	5.36733484	-0.173723012	0.00000000	0.00000000	248.697037	11.9308710	1149.21509	0.188381404	-0.254017282E-1	0.00000000	-460.247650	2585.18384	263.753571	111.062531	642.893188	-1756.49854	9659.74414	61.0025978	2926.18140	1282.86206	-2852.58765	422.097473	38.8253899	-3497.51050	2825.15674	-1184.73572	-551.489319	350.970734	-34.8401489	-6906.08691	3115.44507	31460.4883	-550.071594	4828.42871	42.5016937
    3.6000	3.00000000	0.571548553E-4	0.00000000	11.3999996	-0.00000000	0.00000000	5.31740808	-0.206861675	0.00000000	0.00000000	255.838715	11.8938446	1138.61853	0.227884054	-0.356622785E-1	0.00000000	-359.868744	2567.30103	260.166290	121.251205	618.072449	-1730.67932	9525.94043	50.2647209	4168.00049	1008.07385	-3060.76318	472.208923	23.3187809	-3490.72021	4060.75220	-1189.12341	-851.424683	459.508179	14.2574320	-6899.79639	2636.76465	39058.9297	-848.975037	4661.75830	41.4162521
    3.7000	3.00000000	0.617855403E-4	0.00000000	11.3999996	-0.00000000	0.00000000	5.26499271	-0.192007080	0.00000000	0.00000000	262.990479	11.9555950	1153.42969	0.273051918	-0.446868539E-1	0.00000000	-357.941833	2542.73682	255.652573	129.496384	594.041138	-1875.73010	9369.35547	49.3360710	5228.03125	537.543152	-3199.90552	548.395813	2.38089776	-3474.78955	5153.71924	-1006.38947	-850.767578	540.681396	66.7468643	-6884.66016	1952.09277	46530.9609	-847.042236	4641.10791	40.7030792
    3.8000	3.00000000	0.444599864E-4	0.00000000	11.3999996	-0.00000000	0.00000000	5.19425678	-0.935089886E-1	0.00000000	0.00000000	270.187317	12.0284224	1176.28564	0.321705490	-0.524216853E-1	0.00000000	-504.906281	2501.00024	254.267365	140.787857	574.584106	-2378.29443	9276.71387	63.1871719	4941.94531	-7.09919739	-3255.26611	639.718262	-3.83561873	-3465.56274	4908.45947	-778.720215	-560.657898	610.508484	22.8589783	-6876.45459	4052.65601	54079.9414	-556.144775	4811.98438	41.3817253
    3.9000	3.00000000	0.845124032E-5	0.00000000	11.3999996	-0.00000000	0.00000000	5.10962534	0.327605866E-1	0.00000000	0.00000000	277.411682	12.0378351	1181.10010	0.371602744	-0.593684353E-1	0.00000000	-709.296021	2450.10181	254.742020	149.703873	558.410156	-2948.16602	9232.50684	81.3469467	3707.16699	-538.734497	-3204.96704	711.403992	-19.2374191	-3471.97559	3749.07544	-668.603088	-162.751785	727.442627	-52.0708046	-6884.06006	7135.36279	63073.9414	-158.136368	5001.56836	42.8370667
    4.0000	3.00000000	0.201518887E-4	0.00000000	11.3999996	-0.00000000	0.00000000	5.03477716	0.764006749E-1	0.00000000	0.00000000	284.614349	11.9602013	1163.20691	0.420607954	-0.660356209E-1	0.00000000	-789.269287	2410.26904	254.007339	144.999054	541.934570	-3036.09375	9156.21289	86.0484085	2929.85278	-1038.08936	-3098.34790	782.934631	-48.2084541	-3488.95288	3060.02832	-609.313171	129.632706	841.121094	-74.7085114	-6902.43604	8663.43555	71875.0938	134.452164	5004.81104	43.5243416
    4.1000	3.00000000	0.193553242E-4	0.00000000	11.3999996	-0.00000000	0.00000000	4.98802519	-0.296343248E-1	0.00000000	0.00000000	291.762604	11.8758554	1141.97888	0.466443300	-0.726758391E-1	0.00000000	-611.149963	2394.96484	252.986649	128.531754	525.204895	-2425.89575	9047.83496	66.2761078	3376.82275	-1460.69531	-2939.92432	867.097290	-58.9252853	-3503.66113	3526.79761	-474.138123	157.172272	911.390198	-63.3912659	-6918.66602	8983.61230	79097.9844	163.166260	4843.62061	42.9055176
    4.2000	3.00000000	0.112292500E-4	0.00000000	11.3999996	-0.00000000	0.00000000	4.97368622	-0.210670397	0.00000000	0.00000000	298.881256	11.8667135	1139.26355	0.506781816	-0.793215036E-1	0.00000000	-316.888031	2400.57568	254.511154	104.721481	505.989807	-1457.00891	9023.76074	36.3043404	4534.84033	-1715.74414	-2648.75830	928.418396	-52.0997543	-3503.10181	4642.42627	-227.962738	-70.5712128	990.452332	-44.3845863	-6919.48633	8937.47461	85900.2031	-62.6208115	4684.05762	41.5907097
    4.3000	3.00000000	0.472835382E-5	0.00000000	11.3999996	-0.00000000	0.00000000	4.98716545	-0.332998246	0.00000000	0.00000000	306.015228	11.9185905	1156.00684	0.539869010	-0.856200978E-1	0.00000000	-145.862061	2415.34033	259.453949	81.0876236	482.387695	-730.291565	9142.49219	18.4899445	5077.27930	-1787.65430	-2239.89258	965.923889	-62.9739990	-3481.29541	5177.18945	176.265823	-340.731201	1069.63318	-22.0454330	-6898.86572	8917.01660	91835.0938	-331.426361	4685.80518	41.0034790
    4.4000	3.00000000	0.238392795E-5	0.00000000	11.3999996	-0.00000000	0.00000000	5.02221203	-0.340427071	0.00000000	0.00000000	313.182587	11.9659338	1171.45996	0.564671576	-0.906229466E-1	0.00000000	-176.001953	2430.56104	265.862152	65.8148727	460.079865	-558.150085	9311.85645	20.7909451	4431.99121	-1701.45532	-1727.02637	1005.13123	-75.1198349	-3446.92407	4549.23047	819.706604	-456.699127	1091.81677	-54.7814369	-6865.48926	10528.0527	95210.2656	-447.356415	4815.62451	41.5837440
    4.5000	3.00000000	0.386287365E-5	0.00000000	11.3999996	-0.00000000	0.00000000	5.07397842	-0.280185729	0.00000000	0.00000000	320.360901	11.9485950	1168.17578	0.580421984	-0.932526067E-1	0.00000000	-313.811249	2448.05542	270.576569	58.5612297	442.698547	-745.815308	9448.16309	34.5434799	3407.76978	-1665.82104	-1321.03821	1037.69470	-67.3021851	-3419.91821	3521.38965	1298.71814	-404.629211	1088.09656	-135.145798	-6839.16455	13245.6738	96840.6641	-395.858795	4899.95703	42.4311409
    4.6000	3.00000000	0.372837462E-5	0.00000000	11.3999996	-0.00000000	0.00000000	5.13469505	-0.242369995	0.00000000	0.00000000	327.509125	11.8759594	1150.41882	0.586624503	-0.929689258E-1	0.00000000	-403.723938	2473.96191	272.462128	52.5179443	428.356384	-861.217651	9554.54395	44.3104210	3090.03638	-1832.44592	-1152.66650	1039.79541	-71.1443710	-3418.08765	3216.05811	1249.92554	-372.960815	1117.78369	-144.220779	-6837.54736	13522.5186	98341.9453	-364.431213	4823.36523	42.4126778
    4.7000	3.00000000	0.309327993E-5	0.00000000	11.3999996	-0.00000000	0.00000000	5.19746304	-0.277935266	0.00000000	0.00000000	334.618134	11.8313875	1137.39966	0.583344162	-0.898901448E-1	0.00000000	-362.758026	2507.19946	273.129486	41.7028770	418.393494	-641.007263	9630.73438	41.1705322	3765.51440	-2130.31909	-1085.15991	1029.61975	-80.6380768	-3444.89917	3898.25244	899.370972	-452.409424	1136.68079	-77.7247849	-6864.18311	11194.1201	98483.6641	-443.409912	4653.40381	41.3864098
    4.8000	3.00000000	0.194435029E-5	0.00000000	11.3999996	-0.00000000	0.00000000	5.25848913	-0.361586541	0.00000000	0.00000000	341.720978	11.8550777	1142.72253	0.571004033	-0.846641064E-1	0.00000000	-243.314819	2540.74072	275.091217	25.4754238	414.078064	-174.588867	9700.44141	29.7474899	4663.25928	-2375.56372	-910.131592	1023.54535	-63.6270561	-3488.01831	4749.42529	625.679749	-535.968079	1098.02527	-38.1019745	-6906.81787	9306.56348	95987.1719	-526.427856	4553.25684	40.3068810
    4.9000	3.00000000	0.182848123E-5	0.00000000	11.3999996	-0.00000000	0.00000000	5.32030439	-0.434099585	0.00000000	0.00000000	348.852020	11.9165916	1159.51013	0.550175726	-0.781205595E-1	0.00000000	-160.668167	2573.46460	278.318176	4.91087484	411.680237	299.412079	9820.26270	21.6351166	4770.80078	-2466.06885	-582.360901	995.541321	-45.6246796	-3526.99170	4823.00928	467.248169	-516.099060	1050.37415	-34.2267227	-6944.94531	8441.38574	92247.9609	-507.083252	4603.26074	40.1595345
    5.0000	3.00000000	0.225812914E-5	0.00000000	11.3999996	-0.00000000	0.00000000	5.39032984	-0.480923921	0.00000000	0.00000000	356.015564	11.9522905	1169.05481	0.521844029	-0.706130564E-1	0.00000000	-147.424179	2608.81152	280.122284	-21.6341858	409.625427	747.119141	9948.23145	19.9892120	4032.86694	-2467.77515	-244.229324	940.727478	-44.6287079	-3543.51172	4093.39502	337.865295	-455.840210	1012.54462	-37.7631035	-6960.32129	7880.13281	87907.0312	-448.399384	4725.45703	40.8891525
    5.1000	3.00000000	0.126325710E-5	0.00000000	11.3999996	-0.00000000	0.00000000	5.46893263	-0.555055916	0.00000000	0.00000000	3.18163848	11.9255829	1161.99121	0.487513065	-0.619418770E-1	0.00000000	-85.0745697	2649.34570	279.118591	-50.0293999	409.748718	1323.08569	9992.73926	12.7303782	3287.98755	-2454.03931	-20.3957291	886.488708	-32.2188454	-3530.11426	3325.71484	305.341888	-502.887207	939.324402	-58.1686440	-6945.66748	7649.37451	81889.7031	-496.967957	4771.91016	41.5422821
    5.2000	3.00000000	0.210073699E-5	0.00000000	11.3999996	-0.00000000	0.00000000	5.54498959	-0.686929584	0.00000000	0.00000000	10.3218355	11.8771544	1147.31372	0.448933959	-0.520560741E-1	0.00000000	92.5077591	2692.94360	276.602692	-77.8244324	411.013855	2113.21973	9981.70312	-7.11032534	3334.38086	-2366.14331	140.160339	829.483887	-6.86818027	-3495.08008	3312.37695	415.233459	-625.735352	842.926819	-56.5337753	-6909.34375	6488.18066	74732.0859	-620.533081	4689.55371	41.3475914
    5.3000	3.00000000	0.195523717E-5	0.00000000	11.3999996	-0.00000000	0.00000000	5.60527325	-0.829212606	0.00000000	0.00000000	17.4421444	11.8666601	1141.98950	0.408015698	-0.415477417E-1	0.00000000	292.255371	2731.19336	274.553894	-105.132889	411.848419	2936.20117	9994.00293	-29.8991318	4091.35767	-2160.03955	358.693451	755.307617	3.51928854	-3458.34009	4042.86426	556.541443	-641.069092	764.320496	12.7691841	-6871.32129	3241.91479	67796.7656	-636.071594	4576.12354	40.5354347
    5.4000	3.00000000	0.214463148E-5	0.00000000	11.3999996	-0.00000000	0.00000000	5.64302731	-0.910864532	0.00000000	0.00000000	24.5732708	11.9111986	1152.00745	0.366846293	-0.314641297E-1	0.00000000	397.905701	2754.50269	273.470673	-124.992065	414.651917	3438.65625	10017.1055	-42.1933098	4698.64502	-1947.05676	649.932068	684.460449	9.54806614	-3439.26465	4645.55518	597.411865	-515.309204	683.531006	80.1103973	-6851.13818	132.979782	60793.2930	-510.694275	4559.87988	40.0401649
    5.5000	3.00000000	0.336957760E-5	0.00000000	11.3999996	-0.00000000	0.00000000	5.65645409	-0.897400439	0.00000000	0.00000000	31.7386036	11.9701033	1166.49915	0.327441126	-0.228662081E-1	0.00000000	353.071442	2758.52344	271.871490	-134.212860	421.826782	3456.28247	10003.7393	-36.9801064	4528.76221	-1845.79224	934.608521	629.060547	30.9423561	-3445.39893	4445.16211	464.372772	-410.851410	592.269653	71.1349792	-6856.37939	-539.489319	53736.2227	-407.064514	4663.74854	40.4435081
    5.6000	3.00000000	0.310506175E-5	0.00000000	11.3999996	-0.00000000	0.00000000	5.64448452	-0.823641360	0.00000000	0.00000000	38.9282799	11.9857540	1170.53210	0.291534185	-0.163596869E-1	0.00000000	207.296127	2746.12134	268.210693	-139.924225	434.289978	3211.18945	9938.24219	-20.3914757	3814.79370	-1838.33276	1185.04602	572.093689	44.0785942	-3469.97095	3707.87964	156.071701	-447.185913	529.680054	40.5887985	-6880.23389	-247.404480	47902.0586	-444.410431	4787.08545	41.3701973
    5.7000	3.00000000	0.452810536E-5	0.00000000	11.3999996	-0.00000000	0.00000000	5.60814571	-0.780291617	0.00000000	0.00000000	46.1116142	11.9537907	1161.08044	0.260601521	-0.117320800E-1	0.00000000	117.543282	2724.10400	263.308533	-149.268250	452.835358	3138.35815	9816.75488	-11.0016308	3361.60815	-1841.70215	1456.10986	517.708923	43.5741119	-3496.54272	3244.77905	-205.023148	-601.882690	489.504028	42.4605217	-6906.25146	-682.356201	43274.2695	-599.789551	4813.35693	41.9359589
    5.8000	3.00000000	0.111478348E-4	0.00000000	11.3999996	-0.00000000	0.00000000	5.55516768	-0.833282471	0.00000000	0.00000000	53.2723045	11.9191713	1149.85034	0.235782117	-0.824728422E-2	0.00000000	202.039902	2700.81030	259.344025	-164.137466	475.221893	3512.35449	9670.12500	-21.9065189	3666.60815	-1785.32666	1771.00708	483.805664	57.1930809	-3510.26343	3503.31714	-469.001862	-795.634644	438.189209	53.2896538	-6919.59766	-1420.23340	39042.5742	-793.680481	4741.99121	41.7176399
    5.9000	3.00000000	0.142069166E-4	0.00000000	11.3999996	-0.00000000	0.00000000	5.50036764	-0.956715167	0.00000000	0.00000000	60.4231300	11.9251566	1149.77185	0.217802495	-0.538520887E-2	0.00000000	403.727478	2682.23755	257.298187	-184.563461	497.325134	4226.19434	9560.91406	-46.4312820	4364.95361	-1594.71582	2037.77051	458.567322	73.8006516	-3507.34570	4152.60107	-576.503235	-927.773621	398.449585	74.9569626	-6916.42773	-2487.83203	35905.9141	-925.716003	4680.91162	41.1829529
    6.0000	3.00000000	0.155613598E-4	0.00000000	11.3999996	-0.00000000	0.00000000	5.45995712	-1.07069516	0.00000000	0.00000000	67.5899124	11.9664145	1160.74634	0.207183078	-0.312881102E-2	0.00000000	571.951843	2669.88794	256.734985	-207.636047	517.260132	4933.67480	9505.57422	-67.2270355	4681.09326	-1247.38013	2180.36963	433.517700	69.4084473	-3495.05322	4481.32812	-535.429321	-862.056213	388.791168	109.849037	-6903.98633	-3766.87231	34433.4961	-860.022400	4718.58887	41.1218529
    6.1000	3.00000000	0.104817545E-4	0.00000000	11.3999996	-0.00000000	0.00000000	5.43907022	-1.12807679	0.00000000	0.00000000	74.7810287	11.9995661	1170.33191	0.204308644	-0.186592038E-2	0.00000000	645.379883	2662.07983	257.599518	-223.112625	534.605957	5332.48438	9488.20410	-77.2573166	4294.07129	-733.358765	2156.96777	424.739227	62.9277992	-3484.83496	4140.36963	-304.830261	-524.396057	378.672577	104.369049	-6893.72852	-3678.95142	33827.8203	-522.560974	4830.62744	41.7535439
    6.2000	3.00000000	0.347948917E-4	0.00000000	11.3999996	-0.00000000	0.00000000	5.42927647	-1.12696266	0.00000000	0.00000000	81.9811478	11.9924583	1168.40161	0.209105879	-0.230272766E-2	0.00000000	630.820740	2655.54541	259.725006	-228.285629	550.453552	5385.62793	9507.07812	-76.8266602	3704.06934	-234.241821	2258.05396	443.234467	66.4439850	-3484.99683	3585.28296	-238.577454	-109.826759	366.406250	60.9019852	-6893.97656	-2320.80493	34071.3008	-108.166481	4910.21338	42.5116882
    6.3000	3.00000000	0.472883366E-4	0.00000000	11.3999996	-0.00000000	0.00000000	5.42223549	-1.09368026	0.00000000	0.00000000	89.1640701	11.9481621	1157.91418	0.221065789	-0.518767443E-2	0.00000000	573.174438	2649.24902	262.033508	-226.714233	567.932556	5234.65576	9545.75977	-71.0118256	3539.13770	155.509079	2545.60254	462.683014	55.0337791	-3494.37305	3461.67529	-514.600159	90.1979370	406.354614	57.3391228	-6903.51367	-1864.32678	36617.1484	91.8915176	4889.99121	42.7201042
    6.4000	3.00000000	0.420781253E-4	0.00000000	11.3999996	-0.00000000	0.00000000	5.41561794	-1.05551708	0.00000000	0.00000000	96.3221588	11.9184675	1150.08228	0.239558205	-0.108227385E-1	0.00000000	524.653687	2643.67651	264.154175	-218.758286	588.236572	4989.47998	9574.74121	-65.5401459	3939.05981	472.672272	2802.81372	484.549774	38.3313789	-3501.69629	3882.68970	-819.184753	-5.08843660	476.207855	82.6174164	-6911.09277	-2006.41016	40743.5352	-3.03201437	4808.98975	42.2984734
    6.5000	3.00000000	0.175816022E-4	0.00000000	11.3999996	-0.00000000	0.00000000	5.40987492	-1.01112628	0.00000000	0.00000000	103.474228	11.9270983	1152.73767	0.263740033	-0.189290345E-1	0.00000000	476.050049	2638.12866	266.810760	-205.433594	610.107727	4663.12891	9603.54102	-59.4045868	4464.35547	785.222290	2854.35889	532.004333	39.1518440	-3495.60425	4383.97168	-811.252808	-209.277573	512.285278	72.1700363	-6905.41260	-925.387695	44562.3516	-206.595779	4763.18018	41.7989082
    6.6000	3.00000000	0.174268862E-4	0.00000000	11.3999996	-0.00000000	0.00000000	5.40428591	-0.948483944	0.00000000	0.00000000	110.638527	11.9545259	1161.82837	0.292332917	-0.287900157E-1	0.00000000	392.540466	2631.16406	269.949768	-190.695877	633.757446	4257.61084	9649.35840	-49.4925270	4517.45557	1089.95215	2707.46680	585.735840	31.8698196	-3475.97778	4436.31689	-581.362976	-362.089539	548.270569	44.4256592	-6886.33740	934.732239	48858.6602	-358.860443	4799.66943	41.7895432
    6.7000	3.00000000	0.492722065E-4	0.00000000	11.3999996	-0.00000000	0.00000000	5.40093136	-0.883621871	0.00000000	0.00000000	117.816566	11.9666548	1166.42407	0.323931664	-0.392836370E-1	0.00000000	291.642975	2623.90991	273.282898	-179.901337	658.218689	3898.73950	9704.22949	-38.1944656	4079.80298	1350.27454	2531.24878	626.722534	7.95163155	-3452.71704	4038.51758	-397.841309	-462.633545	625.274536	17.7487240	-6863.72070	2947.70532	54629.5508	-459.066742	4869.30615	42.2289162
    6.8000	3.00000000	0.723058401E-4	0.00000000	11.3999996	-0.00000000	0.00000000	5.40744114	-0.863310993	0.00000000	0.00000000	124.990532	11.9410448	1161.33398	0.357264340	-0.492333956E-1	0.00000000	264.839844	2625.05371	276.525696	-172.665894	678.847656	3758.36255	9759.01953	-35.1981468	3646.32617	1591.97302	2428.11670	677.585022	-6.23943853	-3438.23462	3627.88281	-291.450745	-549.720398	696.807617	-26.5062466	-6850.03516	5364.93213	60455.2891	-545.757263	4886.32764	42.5623703
    6.9000	3.00000000	0.629181886E-4	0.00000000	11.3999996	-0.00000000	0.00000000	5.43015909	-0.903800488	0.00000000	0.00000000	132.143188	11.9025383	1151.88269	0.390925944	-0.579953678E-1	0.00000000	344.755524	2639.72046	279.155151	-167.898972	693.940063	3878.90845	9806.17285	-43.7803535	3665.92188	1879.25854	2287.84619	741.692688	-14.2305708	-3441.83496	3661.33203	-208.532608	-570.192749	746.159729	-54.1697807	-6854.56836	7078.85352	65708.7266	-565.501038	4822.73145	42.3530846
    7.0000	3.00000000	0.146274033E-4	0.00000000	11.3999996	-0.00000000	0.00000000	5.46435833	-0.961562991	0.00000000	0.00000000	139.278259	11.8863821	1147.88599	0.423265100	-0.655496344E-1	0.00000000	451.795624	2660.22827	281.857483	-163.907486	705.466003	4071.18896	9855.11621	-55.2469940	4092.39575	2225.01367	1984.23877	792.236938	-34.0390701	-3464.48193	4133.57666	-206.848648	-451.116943	816.598022	-32.2609787	-6878.16260	7207.75830	71393.0391	-445.416168	4736.94434	41.7444496
    7.1000	3.00000000	0.494794767E-4	0.00000000	11.3999996	-0.00000000	0.00000000	5.49919701	-0.975710869	0.00000000	0.00000000	146.413300	11.9014339	1152.75171	0.452705055	-0.721139908E-1	0.00000000	491.491577	2677.90649	285.949219	-152.890274	713.295715	4010.12109	9946.59668	-58.5609245	4422.40723	2579.96265	1593.73938	833.644226	-50.0962868	-3495.94775	4507.52979	-289.827118	-275.568329	893.212463	-16.8401871	-6910.54834	7427.84814	76914.2578	-268.940125	4704.62256	41.2845459
    7.2000	3.00000000	0.918423393E-4	0.00000000	11.3999996	-0.00000000	0.00000000	5.52914381	-0.908126414	0.00000000	0.00000000	153.561905	11.9255657	1160.10913	0.477896452	-0.778110474E-1	0.00000000	402.225372	2689.38281	290.356079	-130.816772	717.546753	3504.98291	10073.1973	-46.5728455	4301.14258	2857.02417	1252.82764	881.507080	-50.5613976	-3519.54346	4393.70703	-340.125427	-210.465927	935.571045	-49.6256294	-6935.02344	8977.59668	80990.3516	-203.327850	4737.65625	41.3107834
    7.3000	3.00000000	0.939871898E-4	0.00000000	11.3999996	-0.00000000	0.00000000	5.55172586	-0.771831572	0.00000000	0.00000000	160.718811	11.9252291	1161.46716	0.497692257	-0.824813694E-1	0.00000000	203.256180	2692.79150	292.270142	-100.851524	721.634766	2648.26685	10150.1826	-21.7983227	3873.04810	2971.29224	954.414673	916.736389	-57.4293327	-3522.27881	3975.98584	-273.701172	-277.996674	968.012329	-81.3690033	-6938.48877	10464.9062	84148.3672	-270.779480	4777.43799	41.6090546
    7.4000	3.00000000	0.593441328E-4	0.00000000	11.3999996	-0.00000000	0.00000000	5.56302023	-0.628547728	0.00000000	0.00000000	167.866806	11.8990669	1155.22583	0.511304915	-0.856489167E-1	0.00000000	2.75845766	2689.92456	291.175964	-68.2558517	726.842346	1740.04016	10144.7832	3.18000436	3598.99634	2919.56860	627.873535	928.876038	-70.5576401	-3502.16821	3721.48999	-68.9102325	-364.416779	1004.16058	-86.0276260	-6918.84521	11009.6367	86670.8516	-357.125061	4759.95654	41.6808357
    7.5000	3.00000000	0.671217094E-5	0.00000000	11.3999996	-0.00000000	0.00000000	5.56268358	-0.533809721	0.00000000	0.00000000	174.997849	11.8735981	1148.21814	0.518370628	-0.869016945E-1	0.00000000	-109.276337	2685.78174	288.674042	-39.0205879	731.219971	1061.50256	10101.6299	16.6934376	3765.09229	2760.48730	274.248413	937.125427	-68.1821747	-3469.88184	3878.42188	264.751526	-399.973816	1007.99133	-87.7773056	-6886.79004	11148.4180	87528.3906	-392.255066	4687.66553	41.2982941
    7.6000	3.00000000	0.456386952E-4	0.00000000	11.3999996	-0.00000000	0.00000000	5.52432632	-0.488074690	0.00000000	0.00000000	182.120148	11.8720980	1147.84900	0.518795431	-0.863218904E-1	0.00000000	-140.711060	2667.40625	285.109436	-16.9084511	734.020630	666.843994	10008.1221	16.7395687	4149.28516	2496.87354	-47.0164719	939.330994	-63.0524178	-3442.28296	4249.33447	649.187256	-408.353027	986.916687	-75.1655426	-6859.18555	10636.8008	86924.7188	-400.156860	4623.55127	40.7464638
    7.7000	3.00000000	0.782060015E-4	0.00000000	11.3999996	-0.00000000	0.00000000	5.42636251	-0.459006280	0.00000000	0.00000000	189.248550	11.8908253	1153.78369	0.512785256	-0.843353570E-1	0.00000000	-139.537735	2619.39233	279.854340	0.228395730	734.588501	405.512451	9818.64258	17.8002758	4297.93945	2126.74023	-307.394745	919.782532	-69.0617752	-3432.82520	4412.27588	978.779236	-369.997131	975.308899	-47.7436790	-6849.44580	9624.01270	85843.4141	-361.784729	4617.41016	40.4829903
    7.8000	3.00000000	0.706537321E-4	0.00000000	11.3999996	-0.00000000	0.00000000	5.36373329	-0.440127343	0.00000000	0.00000000	196.389297	11.9102316	1158.81738	0.500887275	-0.813226402E-1	0.00000000	-135.691772	2591.65381	271.929749	14.6428623	731.590210	212.977814	9588.27637	21.1738968	4064.17773	1753.73499	-556.234131	893.560974	-65.5794601	-3445.23096	4183.92432	1190.75378	-248.011993	950.960693	-52.0506821	-6861.37061	9454.88477	83747.7344	-240.282364	4653.62256	40.6233101
    7.9000	3.00000000	0.237149507E-4	0.00000000	11.3999996	-0.00000000	0.00000000	5.33994198	-0.425033867	0.00000000	0.00000000	203.536591	11.9093304	1157.85034	0.483726770	-0.774221271E-1	0.00000000	-145.716660	2579.06738	273.570007	25.5686607	724.071045	71.2861176	9626.76953	24.5548916	3754.42480	1713.90820	-829.568359	877.818176	-49.9549026	-3471.88306	3847.85815	1036.52954	-223.213791	899.846130	-77.1586838	-6887.46191	9778.52051	80350.4531	-216.190079	4676.42920	40.8565521
    8.0000	3.00000000	0.251883212E-4	0.00000000	11.3999996	-0.00000000	0.00000000	5.34044981	-0.408262461	0.00000000	0.00000000	210.676514	11.8902378	1152.71094	0.462029397	-0.724467859E-1	0.00000000	-159.510330	2579.12964	283.464722	38.2553253	713.178101	-105.736389	9888.12012	27.5232410	3671.60303	1928.42371	-1103.24890	845.309265	-44.6875153	-3498.06006	3737.91553	562.302246	-414.738861	873.059814	-65.0464935	-6912.92090	8924.36523	77133.8828	-408.398071	4653.61279	40.8385086
    8.1000	3.00000000	0.538997410E-4	0.00000000	11.3999996	-0.00000000	0.00000000	5.37891674	-0.378418535	0.00000000	0.00000000	217.808029	11.8852949	1149.37830	0.436900109	-0.659562200E-1	0.00000000	-190.130524	2598.22314	290.698425	55.5046997	699.010193	-405.107666	10111.2275	32.1543579	3905.52295	2075.68799	-1335.41382	797.173828	-35.7896347	-3510.45972	3927.25171	162.035675	-703.379578	853.652893	-36.2211685	-6924.46973	7369.37598	73717.3672	-697.480835	4606.48584	40.5421028
    8.2000	3.00000000	0.645896507E-4	0.00000000	11.3999996	-0.00000000	0.00000000	5.44867897	-0.315248996	0.00000000	0.00000000	224.942932	11.9004993	1152.10168	0.409669131	-0.577358790E-1	0.00000000	-274.990082	2630.46313	289.851349	76.9434280	681.968689	-901.582336	10165.8584	42.9541817	4200.50635	1968.87927	-1535.71704	761.858093	-12.9277363	-3505.97388	4164.59814	105.417274	-831.764038	783.014526	-23.2987576	-6919.17041	6028.25439	68614.5234	-826.218567	4587.72559	40.2814827
    8.3000	3.00000000	0.531339610E-4	0.00000000	11.3999996	-0.00000000	0.00000000	5.50667143	-0.212067753	0.00000000	0.00000000	232.091064	11.9273453	1158.20435	0.381550580	-0.481404588E-1	0.00000000	-424.624146	2651.72046	285.446228	101.204071	665.750610	-1586.37695	10126.2197	61.1950760	4222.20703	1670.21204	-1716.42822	725.171021	-0.180087194	-3493.34106	4171.05176	194.337112	-726.985107	703.400879	-1.10889590	-6905.78223	4338.34131	63149.6602	-722.046631	4621.10449	40.3607674
    8.4000	3.00000000	0.160906129E-4	0.00000000	11.3999996	-0.00000000	0.00000000	5.51901245	-0.977301970E-1	0.00000000	0.00000000	239.253860	11.9448614	1161.63928	0.353804439	-0.379362181E-1	0.00000000	-593.714172	2648.42773	283.352020	123.014122	652.792114	-2269.37744	10115.6338	81.2133179	3989.68481	1361.27295	-1893.71265	670.173584	4.22919083	-3484.15723	3949.47607	148.266495	-535.291443	666.030945	24.4659939	-6895.85889	2547.35449	58909.4492	-531.149231	4677.56738	40.7331619
    8.5000	3.00000000	0.181971718E-4	0.00000000	11.3999996	-0.00000000	0.00000000	5.49678755	-0.286124535E-1	0.00000000	0.00000000	246.419983	11.9393187	1159.66870	0.327867270	-0.281138457E-1	0.00000000	-687.081787	2633.95508	283.495697	137.667053	641.121155	-2685.10864	10142.5439	92.1350327	3761.67041	1119.80688	-2096.49927	625.226685	19.1016865	-3483.45093	3707.65332	5.47011709	-395.738190	624.291016	28.4959278	-6894.53125	1388.10632	54776.7461	-392.289764	4709.41260	41.0802155
    8.6000	3.00000000	0.321773950E-4	0.00000000	11.3999996	-0.00000000	0.00000000	5.47451162	-0.347536951E-1	0.00000000	0.00000000	253.579880	11.9277210	1155.24255	0.304963827	-0.197042432E-1	0.00000000	-663.309143	2626.00366	281.898438	141.401718	627.822266	-2684.59717	10112.7158	89.4386520	3793.01978	865.344910	-2287.56323	599.445557	35.2096825	-3488.64868	3712.61182	-108.590126	-346.198914	561.117065	38.7214012	-6899.28076	165.747910	50409.8281	-343.186981	4699.62939	41.1519356
    8.7000	3.00000000	0.302910612E-4	0.00000000	11.3999996	-0.00000000	0.00000000	5.46821690	-0.992446169E-1	0.00000000	0.00000000	260.735382	11.9264784	1153.90198	0.285920501	-0.134033114E-1	0.00000000	-554.624268	2628.88696	276.830048	136.114487	610.457947	-2357.42529	9997.00293	77.0351639	4049.66772	535.691772	-2409.35840	566.946899	40.4557266	-3493.35718	3956.66699	-219.042435	-350.709229	529.154175	73.6502762	-6903.62402	-1536.39697	47351.9727	-347.937561	4679.81934	41.0260239
    8.8000	3.00000000	0.229934467E-4	0.00000000	11.3999996	-0.00000000	0.00000000	5.46683693	-0.177999035	0.00000000	0.00000000	267.895233	11.9422169	1157.33447	0.271434814	-0.931109395E-2	0.00000000	-426.791321	2634.68945	271.409058	128.154068	588.851562	-1951.16138	9880.42285	62.6233063	4242.56543	205.806946	-2492.10400	535.343140	49.1730766	-3491.07837	4124.52588	-329.445282	-419.531586	519.033203	89.8401260	-6901.06006	-2460.83130	45424.9883	-416.927643	4690.86963	41.0008965
    8.9000	3.00000000	0.405172068E-5	0.00000000	11.3999996	-0.00000000	0.00000000	5.45459795	-0.221882328	0.00000000	0.00000000	275.066925	11.9620085	1161.96851	0.262109041	-0.706935115E-2	0.00000000	-360.821167	2632.13550	268.945496	121.115173	565.149719	-1697.29004	9826.55176	54.5924683	4192.08105	-44.0383072	-2581.18237	527.340881	63.9408379	-3479.83301	4030.77905	-373.448242	-585.927856	489.484863	72.8620453	-6889.66846	-2217.14941	43556.0508	-583.499512	4738.17676	41.2492409
    9.0000	3.00000000	0.120142513E-4	0.00000000	11.3999996	-0.00000000	0.00000000	5.42863941	-0.212098792	0.00000000	0.00000000	282.246216	11.9657307	1163.16528	0.258256108	-0.614005560E-2	0.00000000	-383.698395	2619.28125	267.626007	118.027023	540.777222	-1698.87500	9796.53711	56.1394157	3968.91675	-271.085297	-2631.56323	526.300232	64.9246521	-3465.43726	3793.28955	-374.195557	-744.724365	472.787323	64.9244308	-6875.22705	-2036.29456	42671.5547	-742.491882	4788.47021	41.6442375
    9.1000	3.00000000	0.994245329E-5	0.00000000	11.3999996	-0.00000000	0.00000000	5.39445400	-0.170712695	0.00000000	0.00000000	289.422760	11.9544783	1159.99036	0.259947062	-0.605253689E-2	0.00000000	-451.441376	2601.28857	264.139771	119.299332	517.794312	-1874.89270	9717.82422	62.4068451	3830.52661	-579.161072	-2607.82324	521.073547	58.9177856	-3457.67749	3666.44141	-402.379059	-758.891113	492.435211	68.8962784	-6867.47900	-2117.10571	43433.9219	-756.741577	4804.92773	41.9017639
    9.2000	3.00000000	0.132360219E-4	0.00000000	11.3999996	-0.00000000	0.00000000	5.35099602	-0.130710334	0.00000000	0.00000000	296.591064	11.9407263	1156.25610	0.267021984	-0.673936354E-2	0.00000000	-509.235687	2578.31055	258.912018	121.071503	498.863953	-2054.62207	9573.64160	67.3315201	3932.52441	-984.637451	-2519.49805	532.416260	61.0650444	-3463.51758	3775.07764	-441.964081	-631.997620	509.174683	65.3885498	-6873.44189	-1975.91809	44742.9180	-629.714966	4787.95850	41.8886147
    9.3000	3.00000000	0.139012627E-4	0.00000000	11.3999996	-0.00000000	0.00000000	5.29183626	-0.109594300	0.00000000	0.00000000	303.753754	11.9368916	1155.92053	0.278913796	-0.861151703E-2	0.00000000	-538.360413	2547.58325	254.859131	118.214066	483.801971	-2105.88647	9428.32129	68.6354904	4140.94678	-1398.74976	-2338.57275	558.640747	57.5428009	-3482.13330	4003.89575	-461.585388	-466.333191	522.114014	72.0665283	-6892.29395	-2005.70300	46501.9844	-463.802216	4771.14795	41.7536087
    9.4000	3.00000000	0.326103918E-5	0.00000000	11.3999996	-0.00000000	0.00000000	5.21994352	-0.117030509	0.00000000	0.00000000	310.916687	11.9401827	1158.59314	0.294766694	-0.121493097E-1	0.00000000	-530.141602	2512.82788	252.954010	108.206352	470.368591	-1958.33008	9334.88086	65.3579865	4205.35742	-1693.35010	-1978.75232	576.861206	43.5637321	-3504.87524	4109.37109	-393.561829	-307.958527	564.838440	83.2187805	-6915.32373	-1932.09363	49526.2656	-305.199402	4779.56787	41.7307892
    9.5000	3.00000000	0.503496767E-5	0.00000000	11.3999996	-0.00000000	0.00000000	5.15461063	-0.161732748	0.00000000	0.00000000	318.082489	11.9452505	1160.40259	0.313657701	-0.175308622E-1	0.00000000	-468.486420	2484.52368	251.568665	91.4601974	458.371155	-1592.16223	9252.15625	56.4309654	4079.89551	-1933.49146	-1551.27405	602.293945	37.5881386	-3519.26611	4011.50562	-266.490356	-131.786575	606.891968	62.1969872	-6930.08301	-728.026001	52873.5312	-128.794830	4802.12646	41.8624077
    9.6000	3.00000000	0.474446233E-5	0.00000000	11.3999996	-0.00000000	0.00000000	5.11031437	-0.239385784	0.00000000	0.00000000	325.248138	11.9369316	1159.19873	0.334556133	-0.245511662E-1	0.00000000	-366.924133	2466.47070	250.448349	66.9827042	447.848969	-1015.33929	9163.13184	43.4035454	3932.63354	-2244.30225	-1314.88879	647.548645	33.5435066	-3516.22168	3875.59937	-262.235596	-99.6869659	630.716797	29.4647732	-6927.53662	988.221863	55959.2812	-96.4086380	4811.36768	41.9865494
    9.7000	3.00000000	0.145597517E-5	0.00000000	11.3999996	-0.00000000	0.00000000	5.08789635	-0.340485185	0.00000000	0.00000000	332.404572	11.9183340	1155.90637	0.356443912	-0.326651074E-1	0.00000000	-233.044785	2461.44824	249.768784	39.2889481	435.996094	-318.427094	9117.26562	27.5575867	3879.79126	-2531.33765	-1193.51172	681.794495	15.5307798	-3495.21680	3845.68848	-339.562378	-236.247482	684.552490	22.2020054	-6907.05566	2113.93457	59987.5391	-232.611145	4792.63965	41.9422646
    9.8000	3.00000000	0.215482146E-5	0.00000000	11.3999996	-0.00000000	0.00000000	5.08189011	-0.443476021	0.00000000	0.00000000	339.552094	11.9082127	1153.41455	0.378556460	-0.411799513E-1	0.00000000	-96.7440491	2465.30347	249.832077	12.4057369	424.272064	368.342133	9111.53516	11.7652836	3989.12305	-2669.76416	-987.147156	707.340698	1.94588602	-3464.91260	3967.87109	-267.497803	-379.152771	747.423157	12.3687859	-6877.28906	3308.96655	64270.1094	-374.957062	4756.56592	41.7164726
    9.9000	3.00000000	0.172285183E-5	0.00000000	11.3999996	-0.00000000	0.00000000	5.08412313	-0.519115388	0.00000000	0.00000000	346.695770	11.9052515	1153.94141	0.400173932	-0.496605895E-1	0.00000000	-0.809189081	2469.01221	251.604385	-9.99437237	415.855957	888.841064	9118.50488	0.430312842	4120.13818	-2677.21875	-631.114014	749.368530	-5.06659079	-3440.45044	4111.60791	11.3254566	-377.595032	766.732117	-9.03474331	-6853.44775	4800.67578	67272.6719	-372.724640	4730.70801	41.4707108
   10.0000	3.00000000	0.102794695E-5	0.00000000	11.3999996	-0.00000000	0.00000000	5.08869028	-0.547118008	0.00000000	0.00000000	353.840118	11.9100714	1156.01562	0.420339912	-0.579726361E-1	0.00000000	16.9789124	2470.29297	254.706665	-27.2647610	410.197723	1161.08569	9167.11621	-2.51185369	4111.91504	-2650.54565	-229.103149	788.402588	-22.8638477	-3435.49658	4145.72217	215.417053	-285.560272	787.548828	-16.8448219	-6849.12256	5935.21533	70154.1641	-280.146301	4726.20020	41.3568649
   10.1000	3.00000000	0.271627846E-5	0.00000000	11.4134245	-0.00000000	0.00000000	5.09746504	-0.539478242	0.00000000	0.00000000	0.987016916	11.9109344	1156.87976	0.438140631	-0.659542233E-1	0.00000000	-27.0910149	2473.37109	257.127289	-41.4858475	406.875092	1260.44043	9242.92090	1.01572883	3992.58179	-2680.24707	98.7208557	806.890564	-40.6082497	-3451.99316	4062.48999	153.239716	-274.297333	846.900757	-28.6632900	-6866.13867	7172.40479	73848.0156	-268.486938	4729.58838	41.3556061
   10.2000	3.00000000	0.549430126E-6	0.00000000	11.4536476	-0.00000000	0.00000000	5.11428452	-0.536833048	0.00000000	0.00000000	8.13109398	11.9018641	1155.32434	0.452927828	-0.732672438E-1	0.00000000	-56.4719887	2480.06592	258.185425	-54.3140488	409.021301	1361.23267	9271.57031	3.20819998	3872.72900	-2774.24292	374.619781	830.410461	-46.1822433	-3478.81934	3945.24976	-8.23757267	-374.176025	886.532654	-59.1250076	-6893.45654	8846.39551	76659.5078	-368.009888	4719.98682	41.3272362
   10.3000	3.00000000	0.139005783E-5	0.00000000	11.5205278	-0.00000000	0.00000000	5.13832426	-0.567454040	0.00000000	0.00000000	15.2695150	11.8935862	1152.81287	0.464064837	-0.794110596E-1	0.00000000	-32.9381905	2490.35913	259.507172	-71.2019653	416.988281	1638.84131	9281.04102	0.965697318E-1	3886.10913	-2807.59937	682.449036	860.359131	-51.6633644	-3500.90894	3957.69556	-81.9803619	-498.304260	891.357239	-75.9779434	-6915.98926	9989.20801	78077.8906	-491.750671	4691.22607	41.1649094
   10.4000	3.00000000	0.234208051E-5	0.00000000	11.6138258	-0.00000000	0.00000000	5.17133617	-0.640047610	0.00000000	0.00000000	22.4047127	11.8921423	1152.14099	0.470935404	-0.837731063E-1	0.00000000	49.6133118	2509.09644	262.498779	-94.6712646	426.979736	2157.50610	9361.68848	-9.20526409	4009.60254	-2679.72339	1032.61426	868.226318	-61.9492455	-3508.57227	4095.40405	-79.5695114	-545.923340	911.178894	-69.1736679	-6923.89062	10259.1758	79400.5547	-538.985962	4661.16064	40.9249115
   10.5000	3.00000000	0.246894137E-5	0.00000000	11.7332039	-0.00000000	0.00000000	5.22398138	-0.747346818	0.00000000	0.00000000	29.5425606	11.9024410	1154.02209	0.473322511	-0.858562887E-1	0.00000000	185.248566	2540.90405	266.802399	-121.032356	437.611877	2841.96191	9496.52344	-24.2895947	4100.24707	-2457.04907	1362.03906	863.882019	-63.2844696	-3501.05249	4190.47607	-18.9515724	-514.124817	928.583618	-71.1137543	-6916.41797	10512.6035	80126.0234	-506.914612	4650.72314	40.7666969
   10.6000	3.00000000	0.273418982E-5	0.00000000	11.8782377	-0.00000000	0.00000000	5.30345678	-0.860946894	0.00000000	0.00000000	36.6885223	11.9169483	1156.71289	0.471424878	-0.855925158E-1	0.00000000	327.557953	2584.64551	271.191254	-146.833496	448.820892	3540.67407	9629.78223	-40.3732300	4078.63745	-2225.63867	1615.15381	867.890076	-59.2237206	-3485.56934	4165.40381	117.312874	-471.795898	906.353577	-79.8595963	-6900.88525	10711.0420	79254.6719	-464.549774	4663.37988	40.7825470
   10.7000	3.00000000	0.432347997E-5	0.00000000	12.0484095	-0.00000000	0.00000000	5.40219069	-0.951592922	0.00000000	0.00000000	43.8416176	11.9257278	1157.93689	0.465641290	-0.833648369E-1	0.00000000	428.788757	2635.84741	275.287109	-169.545151	459.432220	4110.28809	9780.20410	-52.1266518	3973.93311	-1957.63342	1797.54346	861.786621	-63.1843491	-3472.80957	4075.80640	249.964081	-405.511322	883.242859	-69.8285980	-6887.94287	10198.9756	77909.7344	-398.485382	4683.83545	40.9181595
   10.8000	3.00000000	0.951383754E-5	0.00000000	12.2431068	-0.00000000	0.00000000	5.50646448	-1.00772393	0.00000000	0.00000000	50.9986420	11.9307718	1157.24768	0.456606358	-0.797761083E-1	0.00000000	478.516357	2688.23950	279.729584	-186.168747	470.035095	4472.53467	9963.32910	-57.8467560	3921.92969	-1637.04541	1951.57715	838.169495	-63.1366081	-3470.02686	4033.79150	304.596313	-302.528534	879.126282	-57.6512985	-6884.80957	9466.27539	76721.7656	-295.778931	4694.96729	41.0398636
   10.9000	3.00000000	0.110580977E-4	0.00000000	12.4616346	-0.00000000	0.00000000	5.60830975	-1.02975726	0.00000000	0.00000000	58.1588669	11.9375277	1156.64368	0.445157409	-0.754682720E-1	0.00000000	485.054565	2736.81714	284.923584	-194.770493	483.416473	4610.00537	10152.4990	-57.9478760	3999.12598	-1303.86108	2073.59595	819.719177	-51.6985130	-3476.85474	4093.80688	347.109772	-243.106049	853.924316	-54.9085999	-6891.24463	8886.26855	74679.0938	-236.570450	4698.57129	41.0927963
   11.0000	3.00000000	0.493881817E-5	0.00000000	12.7032089	-0.00000000	0.00000000	5.70782948	-1.02262354	0.00000000	0.00000000	65.3253174	11.9519119	1158.07593	0.432119161	-0.708781332E-1	0.00000000	448.618835	2781.98291	290.223969	-198.472580	501.022888	4580.91602	10340.1914	-52.2201157	4131.54541	-983.898193	2104.76978	804.955627	-43.2467842	-3486.15039	4204.77344	433.434082	-290.282318	812.338196	-40.4673500	-6900.14893	7953.82178	71998.5312	-283.982025	4712.45850	41.1632576
   11.1000	3.00000000	0.293801395E-5	0.00000000	12.9669666	-0.00000000	0.00000000	5.80976343	-1.00569129	0.00000000	0.00000000	72.5024796	11.9738913	1161.19519	0.418381244	-0.660097972E-1	0.00000000	397.772247	2827.88232	295.502197	-200.199509	522.159546	4493.81934	10540.7637	-44.2599487	4193.85059	-624.329224	1945.82092	774.476501	-36.8280411	-3491.48438	4247.13867	625.826477	-369.123016	790.474854	-23.2631950	-6905.02637	6936.95020	69769.5781	-363.117523	4749.14014	41.3722382
   11.2000	3.00000000	0.597948292E-5	0.00000000	13.2519636	-0.00000000	0.00000000	5.91615343	-1.00025284	0.00000000	0.00000000	79.6967163	12.0079088	1164.40662	0.404997796	-0.605537556E-1	0.00000000	368.948669	2875.67432	302.419250	-201.163589	546.478821	4447.44238	10770.1826	-38.8308830	4217.29346	-309.388458	1892.92419	753.137207	-18.9008293	-3490.77979	4232.47803	715.908447	-399.021759	760.072937	-26.1350880	-6903.91211	6407.81201	67360.3281	-393.315643	4805.26172	41.7457123
   11.3000	3.00000000	0.229182479E-4	0.00000000	13.5571795	-0.00000000	0.00000000	6.03105497	-1.01677465	0.00000000	0.00000000	86.9110413	12.0385904	1167.41150	0.393073440	-0.542094000E-1	0.00000000	369.869171	2928.93042	310.356354	-205.023026	571.760803	4526.93896	11028.0869	-37.2393723	4253.34521	-121.142136	2150.20947	749.057129	-3.40797925	-3486.55298	4230.03271	511.372223	-495.079102	722.425598	-20.8975830	-6899.39746	5553.63379	64955.5742	-489.715759	4875.90527	42.2503815
   11.4000	3.00000000	0.296018115E-4	0.00000000	13.8815212	-0.00000000	0.00000000	6.15903616	-1.06135225	0.00000000	0.00000000	94.1435547	12.0717402	1170.10217	0.383769125	-0.469001606E-1	0.00000000	414.967560	2990.62427	318.494354	-211.285477	596.380310	4741.97021	11301.8438	-41.4329185	4301.85791	59.1282845	2477.64868	735.298828	1.93075168	-3484.33545	4258.27783	158.926102	-615.906067	723.548767	6.30372810	-6896.92529	3987.05420	63940.8672	-610.898315	4956.64697	42.8512688
   11.5000	3.00000000	0.165195834E-4	0.00000000	14.2238264	-0.00000000	0.00000000	6.30182409	-1.12167013	0.00000000	0.00000000	101.399063	12.1137514	1173.30847	0.378305644	-0.389351957E-1	0.00000000	484.801880	3059.08374	327.869232	-217.952805	618.843079	5022.17920	11596.2939	-48.6510239	4436.56934	373.282837	2618.51172	724.838196	16.6463833	-3489.11475	4366.86230	-53.3715134	-593.373474	730.307068	22.2621002	-6901.53711	2624.19312	63516.5703	-588.557800	5048.74902	43.5282402
   11.6000	3.00000000	0.144457836E-4	0.00000000	14.5828714	-0.00000000	0.00000000	6.45634556	-1.17223346	0.00000000	0.00000000	108.680679	12.1602669	1178.64465	0.377608418	-0.311106443E-1	0.00000000	545.431152	3132.48730	339.324860	-219.261551	639.030640	5202.35938	11939.9004	-54.3714523	4564.77832	820.208618	2561.37085	738.947144	31.3727474	-3502.57788	4482.27100	-83.2352066	-410.050842	707.027588	37.2109909	-6915.02637	1304.28992	62802.6914	-405.356018	5062.83154	43.4520035
   11.7000	3.00000000	0.478928523E-4	0.00000000	14.9573727	-0.00000000	0.00000000	6.61849546	-1.18248546	0.00000000	0.00000000	115.995171	12.2239876	1185.61853	0.382143974	-0.243298337E-1	0.00000000	542.618225	3206.81323	352.151947	-214.039886	659.296021	5149.31787	12330.6240	-51.1224823	4601.37646	1271.53101	2443.07910	754.634766	34.8473778	-3520.46191	4526.69092	-156.674973	-241.789413	710.115051	64.2198334	-6933.05811	-197.357468	63425.7656	-237.252670	5081.13916	43.3526306
   11.8000	3.00000000	0.593657569E-4	0.00000000	15.3459845	-0.00000000	0.00000000	6.78551102	-1.14347684	0.00000000	0.00000000	123.350166	12.2918549	1192.89832	0.392291903	-0.191519205E-1	0.00000000	460.925385	3278.80420	365.791046	-202.456604	680.296082	4832.85791	12746.7451	-35.8493690	4576.00342	1640.92688	2368.04785	764.802368	43.1278381	-3532.64429	4484.69287	-323.223541	-249.319168	757.208496	72.1893234	-6945.47070	-977.198608	65919.1406	-244.892410	5097.78271	43.2292023
   11.9000	3.00000000	0.397163094E-4	0.00000000	15.7473230	-0.00000000	0.00000000	6.95680714	-1.07804728	0.00000000	0.196393915E-1	130.745468	12.3608198	1199.45728	0.408456624	-0.157327261E-1	0.00000000	347.085815	3352.15649	379.652985	-181.798096	701.498596	4301.38477	13173.3555	-14.5622072	4512.86670	1958.35669	2283.11230	797.456177	55.4989624	-3529.51123	4386.91602	-366.529266	-374.181366	788.117798	62.9003983	-6942.78516	-1076.36914	68651.2812	-369.767029	5108.96924	43.0871773
   12.0000	3.00000000	0.547910440E-5	0.00000000	16.1599426	-0.00000000	0.00000000	7.12210798	-1.05121982	0.00000000	0.475256503	138.190323	12.4598646	1206.24963	0.430705249	-0.139289899E-1	0.00000000	215.256180	3425.84424	394.125916	-155.625473	724.411194	3649.90674	13611.0889	10.4721794	4617.47070	2247.37012	2071.53101	847.065491	62.3236465	-3511.49072	4468.16699	-228.354889	-477.665283	809.710999	65.5248032	-6925.43848	-1360.89807	71811.6719	-473.021210	5119.45508	42.9325027
   12.1000	3.00000000	0.328053211E-4	0.00000000	16.5823708	-0.00000000	0.00000000	7.26812220	-1.03109539	0.00000000	0.953482807	145.694717	12.5523119	1216.71338	0.458729625	-0.135202110E-1	0.00000000	74.5862579	3487.93213	409.136597	-134.319824	749.040588	3077.19702	14041.0439	34.5121651	4798.89160	2551.83472	1678.33618	889.485474	59.0452652	-3489.57446	4660.04492	-78.5138092	-409.084900	872.642273	84.3290253	-6904.33447	-1955.43335	76775.3359	-404.037415	5142.59766	42.7556114
   12.2000	3.00000000	0.575202612E-4	0.00000000	17.0130997	-0.00000000	0.00000000	7.38591766	-1.05148613	0.00000000	1.47717214	153.258133	12.6670046	1228.90186	0.492053390	-0.143735781E-1	0.00000000	13.6375275	3542.84106	422.619751	-109.359039	772.970642	2590.58496	14421.5107	46.6642189	4786.62061	2849.58887	1229.48035	939.754333	56.1777725	-3475.93359	4665.56348	11.1268005	-269.710815	950.059509	85.0770264	-6891.74121	-1876.96497	82758.5625	-264.292694	5168.46631	42.5445633
   12.3000	3.00000000	0.617362020E-4	0.00000000	17.4505806	-0.00000000	0.00000000	7.48200417	-1.09171438	0.00000000	2.03103852	160.898590	12.7978210	1241.38257	0.529787064	-0.165181551E-1	0.00000000	-37.2091713	3590.69995	431.605469	-90.7200012	793.975952	2245.70532	14698.8779	56.7741356	4800.16748	3111.94971	792.096252	1010.47400	63.6149559	-3477.74170	4674.68604	65.4699478	-152.097412	1012.26001	60.9708138	-6894.90771	-987.044067	88839.4531	-146.125076	5191.26318	42.3025589
   12.4000	3.00000000	0.320229519E-4	0.00000000	17.8932533	-0.00000000	0.00000000	7.55718136	-1.14754450	0.00000000	2.60356045	168.612076	12.9156933	1253.92444	0.570393682	-0.200983826E-1	0.00000000	-55.9981117	3633.60327	434.407288	-70.3173523	812.840759	1930.04614	14828.4404	62.8077393	4725.31689	3260.89673	345.495575	1076.75757	48.9755859	-3494.52148	4632.77393	80.6499329	-104.356895	1097.26575	66.6261444	-6913.23779	-720.172302	95881.6562	-97.9233780	5210.36230	42.0335388
   12.5000	3.00000000	0.220426809E-4	0.00000000	18.3395252	-0.00000000	0.00000000	7.61131859	-1.20079720	0.00000000	3.17924762	176.403183	13.0579920	1265.72339	0.612050295	-0.249813646E-1	0.00000000	-70.0176849	3666.60010	432.318268	-47.3260422	829.922302	1574.07605	14817.0215	62.4271431	4716.81641	3248.81396	-141.125565	1133.43030	37.1713219	-3517.81421	4648.88818	129.156631	-79.3832397	1202.42297	65.1557922	-6938.19287	-128.402298	103589.336	-72.3035660	5223.40576	41.7459869
   12.6000	3.00000000	0.588531111E-4	0.00000000	18.7878017	-0.00000000	0.00000000	7.52358055	-1.19533324	0.00000000	3.75865507	184.280960	13.1986675	1279.41125	0.652898610	-0.308482330E-1	0.00000000	-150.102844	3620.69946	429.429626	-22.1748028	840.824646	1036.06201	14689.9932	64.5408020	4832.49121	3073.45190	-608.533325	1200.35364	41.5459557	-3533.10596	4753.76318	347.113495	-92.2927856	1276.64233	35.8600197	-6955.30127	1299.33887	110324.164	-84.2276535	5241.31738	41.4409218
   12.7000	3.00000000	0.798263645E-4	0.00000000	19.2364883	-0.00000000	0.00000000	7.33129787	-1.13012648	0.00000000	4.35292816	192.241486	13.3421850	1294.70068	0.691105306	-0.373807997E-1	0.00000000	-266.232849	3532.05493	417.446320	15.3811054	849.883179	164.075546	14274.3613	94.2027969	4814.65869	2565.19482	-1022.54993	1258.89355	26.3480816	-3535.37891	4770.31592	854.614868	-33.0261955	1337.60205	32.5750618	-6959.37012	2122.91650	116347.281	-24.1361561	5261.82568	41.1118088
   12.8000	3.00000000	0.765739023E-4	0.00000000	19.6839619	-0.00000000	0.00000000	7.17710114	-1.04889572	0.00000000	4.95909214	200.301605	13.5288448	1310.54456	0.724986017	-0.441888049E-1	0.00000000	-443.809265	3443.17651	412.736267	49.3367310	863.786621	-705.361633	14033.9443	129.032547	4885.49072	2174.05762	-1414.20947	1309.55603	13.7442322	-3528.01489	4874.05225	1175.11108	82.2771988	1401.49231	28.1796055	-6953.68262	2982.83154	121960.430	92.1450577	5280.74121	40.7607918
   12.9000	3.00000000	0.458680515E-4	0.00000000	20.1286354	-0.00000000	0.00000000	7.02194262	-0.970735729	0.00000000	5.58326387	208.473160	13.7066422	1329.40271	0.753281295	-0.509369262E-1	0.00000000	-631.934265	3358.92871	427.689453	77.1927719	879.863342	-1488.49036	14309.6514	157.142410	4999.68750	2239.27100	-1779.87988	1360.23206	10.7378120	-3515.17212	4985.62842	1034.09851	-3.32603860	1463.02563	6.79882622	-6942.35742	4288.56104	126903.180	7.52082586	5307.18506	40.3837547
   13.0000	3.00000000	0.121825033E-4	0.00000000	20.5689068	-0.00000000	0.00000000	6.91261292	-0.932554781	0.00000000	6.23019409	216.753036	13.8995008	1349.10669	0.775368869	-0.574710928E-1	0.00000000	-752.891724	3309.71509	443.381989	106.131195	894.144104	-2173.78442	14661.1709	170.624252	4923.33008	2320.08398	-2074.24268	1395.17029	-5.66842031	-3501.25415	4923.97070	855.109558	-207.615082	1524.11987	-0.307053506	-6929.65234	5229.33691	131114.578	-196.250580	5331.54834	39.9766693
   13.1000	3.00000000	0.385220992E-4	0.00000000	21.0032043	-0.00000000	0.00000000	6.88665915	-0.933869660	0.00000000	6.88973141	225.155273	14.1045961	1368.40479	0.791040778	-0.637029111E-1	0.00000000	-853.235962	3300.73608	442.916260	125.524925	903.642578	-2654.00928	14649.4619	179.815414	4892.65186	2008.28906	-2279.44482	1418.44312	-17.3764248	-3492.95874	4912.64355	996.904602	-246.527969	1555.37036	-12.0683193	-6922.23438	6245.65918	133728.719	-234.563507	5349.80811	39.5478439
   13.2000	3.00000000	0.362223254E-4	0.00000000	21.4299774	-0.00000000	0.00000000	6.87467957	-0.972175360	0.00000000	7.55613804	233.675598	14.2990189	1387.74121	0.800014317	-0.696788728E-1	0.00000000	-891.106628	3298.66650	432.836029	142.829132	908.989319	-2988.33643	14406.5322	181.013199	4827.63428	1478.43811	-2423.79346	1438.31567	-27.4042397	-3495.90186	4876.05664	1256.36914	-139.801620	1551.19568	-25.9826202	-6925.76123	7299.32715	134581.641	-127.350395	5364.40430	39.1032295
   13.3000	3.00000000	0.167608760E-4	0.00000000	21.8476868	-0.00000000	0.00000000	6.78786087	-1.00984478	0.00000000	8.22494030	242.320648	14.5215731	1407.23438	0.801951110	-0.753222257E-1	0.00000000	-904.006226	3259.51514	428.728668	157.783508	914.325317	-3243.41553	14273.2891	177.968307	4865.38037	1123.50403	-2494.08789	1438.01709	-34.7130890	-3506.38745	4917.82422	1319.24597	-241.644592	1557.96692	-37.0865288	-6936.36670	8224.17676	134940.781	-228.749527	5376.46143	38.6482391
   13.4000	3.00000000	0.820492824E-5	0.00000000	22.2548485	-0.00000000	0.00000000	6.62270117	-1.01549661	0.00000000	8.90092754	251.101349	14.7462654	1429.55542	0.796907306	-0.802610070E-1	0.00000000	-947.892456	3181.44751	431.715210	169.621201	918.684082	-3514.56445	14280.2559	177.525833	4995.52002	1010.77722	-2485.26001	1417.50256	-40.1376457	-3514.24243	5021.38916	1279.83337	-650.296631	1571.45544	-43.4866676	-6943.87744	8929.89941	134686.453	-637.047180	5395.57861	38.1800117
   13.5000	3.00000000	0.211278530E-4	0.00000000	22.6499996	-0.00000000	0.00000000	6.43458462	-0.997342587	0.00000000	9.59195709	260.018677	14.9825125	1453.88123	0.785355747	-0.839070082E-1	0.00000000	-1009.80530	3093.45215	430.205566	183.980804	920.970459	-3887.76782	14177.4209	177.863708	4983.05078	864.161255	-2418.71777	1398.32727	-46.6429939	-3513.92700	4990.41260	1397.50745	-998.634644	1541.04358	-49.0475273	-6942.95166	9499.35352	132455.641	-985.396362	5417.24316	37.6919708
   13.6000	3.00000000	0.341422710E-4	0.00000000	23.0317249	-0.00000000	0.00000000	6.24798441	-0.957604170	0.00000000	10.2953711	269.082397	15.2277136	1478.17493	0.767787755	-0.857106969E-1	0.00000000	-1109.62073	3001.93848	419.027161	195.502960	924.808777	-4304.44434	13824.0312	181.061630	4907.91406	529.060852	-2324.54736	1372.76794	-45.2471619	-3508.03662	4907.18652	1583.64941	-1054.23450	1486.49487	-63.8365288	-6936.16064	10115.8857	128861.500	-1041.18042	5434.04248	37.1874466
   13.7000	3.00000000	0.289348627E-4	0.00000000	23.3986664	-0.00000000	0.00000000	6.03165150	-0.911067426	0.00000000	11.0042114	278.289032	15.4606895	1501.34827	0.744599462	-0.854972526E-1	0.00000000	-1199.07812	2891.02808	405.953156	204.729187	932.023987	-4678.04297	13390.8477	180.598312	4762.95898	151.390900	-2285.67480	1323.50635	-49.1021080	-3502.69434	4775.94580	1574.70972	-988.866882	1455.33240	-63.9714279	-6929.54492	10118.5625	125284.750	-976.352417	5443.11816	36.6746368
   13.8000	3.00000000	0.220706370E-4	0.00000000	23.7494946	-0.00000000	0.00000000	5.75826025	-0.873520732	0.00000000	11.7101040	287.636047	15.6955185	1522.94995	0.716360509	-0.834533200E-1	0.00000000	-1247.28918	2754.99976	397.718201	206.030746	943.205872	-4847.87012	13032.6758	172.219971	4666.14551	-102.557190	-2356.52637	1266.90735	-53.1060982	-3501.70361	4682.68896	1405.13098	-1042.96252	1419.24158	-54.4187584	-6927.07227	9642.99902	121009.703	-1031.17981	5444.50781	36.1636620
   13.9000	3.00000000	0.220759484E-4	0.00000000	24.0829716	-0.00000000	0.00000000	5.44206667	-0.864142239	0.00000000	12.4098186	297.121185	15.9191952	1544.53271	0.683701396	-0.800656378E-1	0.00000000	-1229.44189	2604.97656	392.794312	196.796692	957.520020	-4719.98291	12704.1660	153.900787	4641.64746	-248.969360	-2392.98022	1213.21509	-49.0090752	-3506.43164	4635.05713	1320.75830	-1225.10474	1350.16040	-50.7935524	-6930.22021	9165.05664	115310.836	-1214.09131	5444.68115	35.6594505
   14.0000	3.00000000	0.944247222E-5	0.00000000	24.3978882	-0.00000000	0.00000000	5.10999441	-0.892664254	0.00000000	13.1042919	306.738007	16.1368809	1566.22156	0.647147000	-0.759866461E-1	0.00000000	-1136.31116	2456.16016	385.139679	179.112122	971.762695	-4310.48242	12287.9170	126.485336	4573.13184	-352.386719	-2163.51807	1142.73828	-46.4749718	-3511.41577	4553.92725	1452.28552	-1326.08252	1279.54016	-42.0056496	-6933.46240	8483.50195	109098.500	-1315.95093	5444.14893	35.1622124
   14.1000	3.00000000	0.112492371E-4	0.00000000	24.6931267	-0.00000000	0.00000000	4.76588726	-0.942576826	0.00000000	13.7921009	316.482758	16.3440247	1586.99243	0.607197464	-0.717211962E-1	0.00000000	-1002.27545	2306.47656	372.923248	152.569962	983.777161	-3678.58691	11751.2197	95.3385391	4443.36230	-456.481689	-1609.62158	1057.60669	-44.5328178	-3516.11035	4438.91895	1748.56934	-1109.99988	1208.12329	-31.5315590	-6936.31104	7748.59961	102457.875	-1100.78711	5439.81885	34.6744080
   14.2000	3.00000000	0.779760558E-5	0.00000000	24.9676266	-0.00000000	0.00000000	4.39672756	-0.983961284	0.00000000	14.4694033	326.352142	16.5549564	1606.21436	0.564322412	-0.674548745E-1	0.00000000	-851.706482	2141.88989	360.696625	124.342232	997.428223	-3006.02539	11163.7021	64.4688492	4345.49854	-857.262085	-1476.22534	995.169739	-34.9401093	-3513.98242	4326.91260	1556.46826	-1050.96973	1108.38281	-31.5923901	-6932.50000	7303.59326	94751.8984	-1042.73596	5430.56006	34.2011528
   14.3000	3.00000000	0.690415118E-5	0.00000000	25.2204075	-0.00000000	0.00000000	4.00642967	-0.986012638	0.00000000	15.1352882	336.344543	16.7468166	1625.37292	0.519291282	-0.629406646E-1	0.00000000	-749.311584	1961.23071	347.621674	93.4152832	1011.10315	-2386.52881	10555.8457	37.5295944	4310.40674	-1411.08569	-1725.08545	918.691284	-24.1979942	-3494.03174	4239.71875	992.069336	-1405.76379	1043.89258	-30.6325321	-6910.85889	6797.82812	87807.3828	-1398.52979	5421.92480	33.7442360
   14.4000	3.00000000	0.270663645E-5	0.00000000	25.4505615	-0.00000000	0.00000000	3.60152388	-0.959465325	0.00000000	15.7902384	346.442902	16.9132652	1643.29065	0.473341882	-0.578282811E-1	0.00000000	-660.994995	1772.35767	331.961426	64.9761429	1025.67065	-1850.05933	9884.52344	12.6460896	4110.53955	-1750.95325	-1700.08655	820.916809	-24.2205429	-3464.90039	4018.86377	718.834778	-1666.54199	996.522949	-17.1842747	-6880.05713	5916.86084	81203.6406	-1660.38940	5410.08154	33.3034210
   14.5000	3.00000000	0.407194420E-5	0.00000000	25.6572666	-0.00000000	0.00000000	3.17538333	-0.914335072	0.00000000	16.4282875	356.638855	17.0699539	1657.70239	0.427553594	-0.520771667E-1	0.00000000	-565.431885	1565.87366	315.816345	37.2360573	1047.29199	-1325.61658	9104.73438	-11.8544426	3887.82397	-1833.00623	-1178.91748	748.343933	-16.1171818	-3445.75146	3804.43970	854.621643	-1395.07971	880.392273	-16.6188965	-6859.49658	5302.63330	72693.9062	-1389.83521	5389.08740	32.8857803
   14.6000	3.00000000	0.275453772E-5	0.00000000	25.8397808	-0.00000000	0.00000000	2.72143388	-0.850505054	0.00000000	17.0439167	6.92171335	17.2026939	1669.63025	0.382191122	-0.460933298E-1	0.00000000	-463.368042	1342.68347	300.979858	9.55117893	1073.19788	-788.938049	8325.59570	-36.4288712	3762.58472	-1799.50940	-695.965576	676.015015	-6.78230572	-3442.55396	3681.98779	932.478271	-1157.73230	767.780334	-12.2680330	-6855.06641	4538.38184	64341.4688	-1153.28479	5363.83252	32.4978218
   14.7000	3.00000000	0.109046994E-5	0.00000000	25.9974556	-0.00000000	0.00000000	2.25273705	-0.775145710	0.00000000	17.6368504	17.2798576	17.3228302	1680.63940	0.337309182	-0.403462090E-1	0.00000000	-360.615387	1115.31433	284.907013	-20.7695847	1098.98743	-198.912704	7569.06494	-60.4858627	3711.65210	-1849.88904	-608.287598	571.788696	-6.44588089	-3449.53687	3611.17261	753.678101	-1386.48767	728.974976	10.5243645	-6860.85254	3296.85791	58103.0469	-1382.80688	5339.72070	32.1398125
   14.8000	3.00000000	0.216541889E-5	0.00000000	26.1297207	-0.00000000	0.00000000	1.77895486	-0.707568407	0.00000000	18.2097759	27.7039013	17.4175491	1691.32629	0.293315470	-0.350495651E-1	0.00000000	-226.948425	888.365723	263.516907	-53.4493446	1128.19604	497.722687	6674.66895	-85.8095703	3622.81787	-2070.73364	-674.989685	485.089355	-0.757172585	-3456.90454	3472.15796	594.913208	-1837.81396	661.286194	19.2019482	-6867.22803	2507.14209	51175.4023	-1834.84009	5318.25293	31.8083153
   14.9000	3.00000000	0.398684870E-5	0.00000000	26.2361088	-0.00000000	0.00000000	1.28735733	-0.653309405	0.00000000	18.7622662	38.1758118	17.4859238	1699.26294	0.250359893	-0.301842168E-1	0.00000000	-31.1286068	655.019653	242.847351	-84.4491425	1160.11707	1291.55127	5732.01758	-107.923523	3361.32129	-2258.03320	-580.847656	424.714722	9.39545345	-3459.27124	3165.46338	600.510376	-2145.06055	542.484863	9.35069275	-6868.82031	2308.24341	42946.6953	-2142.76416	5291.97559	31.5033474
   15.0000	3.00000000	0.351925019E-5	0.00000000	26.3162308	-0.00000000	0.00000000	0.778595626	-0.588272929	0.00000000	19.2879314	48.6813774	17.5259380	1702.58508	0.208220690	-0.256391782E-1	0.00000000	161.677933	413.072021	222.882217	-119.441315	1188.77576	2164.74390	4829.02734	-125.404968	3093.98853	-2296.79590	-298.274780	339.147858	13.9387684	-3452.32886	2885.13086	544.561523	-2209.67090	475.613678	8.72335529	-6861.19043	1888.11230	36249.0938	-2207.95654	5256.66357	31.2320786
   15.1000	3.00000000	0.869979704E-5	0.00000000	26.3698063	-0.00000000	0.00000000	0.260581732	-0.507707477	0.00000000	19.7810249	59.1988029	17.5265064	1701.99231	0.166744620	-0.213741679E-1	0.00000000	353.874481	156.538086	204.612534	-152.785278	1212.41296	3023.54297	3973.62769	-136.721985	2887.56763	-2138.12769	7.29309082	237.878036	11.2732716	-3438.03906	2696.28809	512.749207	-2089.86182	439.196503	22.7364578	-6846.31299	1077.85974	30463.1641	-2088.61768	5215.93408	31.0008831
   15.2000	3.00000000	0.165553483E-4	0.00000000	26.3966427	-0.00000000	0.00000000	-0.189749211	-0.434987575	0.00000000	20.2392979	69.7085800	17.5007744	1698.68591	0.125835657	-0.176375657E-1	0.00000000	543.318726	-40.8388863	176.604477	-175.977173	1235.58948	3718.87598	2918.36279	-140.459579	2759.66064	-1969.70532	320.216309	172.954712	13.8670282	-3418.63013	2582.39014	576.188477	-1869.76172	333.528687	27.4717350	-6826.47754	555.288330	22832.6445	-1868.88770	5174.07617	30.8119392
   15.3000	3.00000000	0.309905809E-4	0.00000000	26.3966427	-0.00000000	0.00000000	-0.507928610	-0.367411613	0.00000000	20.6634960	80.1957092	17.4568481	1693.75366	0.849127471E-1	-0.149501180E-1	0.00000000	682.686035	-182.373581	148.787125	-184.973007	1256.30823	4074.39868	2009.70068	-144.543335	2678.96411	-1812.58911	1166.54492	124.546631	18.3868504	-3411.12988	2509.41357	56.1225243	-1691.72925	229.824432	27.1841106	-6818.69092	280.370300	15315.1172	-1691.20093	5134.23730	30.6637535
   15.4000	3.00000000	0.307760201E-4	0.00000000	26.3698063	-0.00000000	0.00000000	-0.807456970	-0.228492990	0.00000000	21.0566559	90.6601257	17.4238377	1688.78235	0.437364019E-1	-0.136345467E-1	0.00000000	698.083069	-342.444092	139.619843	-188.544724	1275.75720	4105.61719	1601.55029	-148.710495	2747.65674	-1491.65979	2194.30933	35.5785675	20.7883606	-3416.42041	2576.88477	-933.744446	-1653.74634	228.907852	32.8164635	-6823.77783	-31.8175297	10634.5479	-1653.52856	5100.53760	30.5521431
   15.5000	3.00000000	0.149842472E-4	0.00000000	26.3162308	-0.00000000	0.00000000	-1.09365010	-0.405544303E-1	0.00000000	21.4258003	101.096497	17.3554096	1685.35413	0.356329186E-2	-0.137645779E-1	0.00000000	640.473938	-509.768616	135.754272	-184.926331	1295.22681	3891.00000	1286.44397	-152.412979	2740.96851	-1050.23584	2672.73364	-41.2125359	14.8068094	-3419.85059	2580.07275	-1376.92810	-1656.06079	185.858948	43.2532768	-6827.11865	-292.149658	4851.95508	-1656.11853	5076.18896	30.4681053
   15.6000	3.00000000	0.224292144E-4	0.00000000	26.2361088	-0.00000000	0.00000000	-1.34896731	0.126557037	0.00000000	21.7724228	111.482117	17.2640762	1678.56836	-0.341106355E-1	-0.151603930E-1	0.00000000	623.877014	-651.251282	115.996399	-170.935059	1309.74939	3606.48755	675.094238	-152.760254	2401.05981	-673.584656	2477.39600	-75.1830063	7.83156061	-3415.51099	2253.17944	-994.459229	-1702.26184	33.0759125	32.3310738	-6822.77246	251.691742	-3737.71606	-1702.52600	5045.96533	30.4091854
   15.7000	3.00000000	0.171417360E-4	0.00000000	26.1297207	-0.00000000	0.00000000	-1.60322011	0.270258069	0.00000000	22.0879726	121.811920	17.1641369	1665.94678	-0.687945932E-1	-0.174126476E-1	0.00000000	646.132874	-790.003906	88.2592697	-159.528076	1324.19385	3447.88501	-143.930267	-150.109253	2175.47461	-338.865234	2021.12207	-142.385910	16.6151505	-3404.09619	2027.67310	-578.162964	-1506.14111	-49.7695694	-4.69820738	-6811.49072	1566.18262	-10051.9111	-1506.58313	5004.18896	30.3859158
   15.8000	3.00000000	0.178659993E-4	0.00000000	25.9974556	-0.00000000	0.00000000	-1.88832366	0.409212202	0.00000000	22.3690224	132.074600	17.0441113	1651.79834	-0.100381590	-0.201401170E-1	0.00000000	701.828125	-943.414795	64.9467392	-149.908249	1336.59180	3391.51782	-873.242737	-144.686111	2223.68677	-27.5798340	1800.62634	-236.207352	10.1999865	-3388.27637	2094.91650	-581.156006	-1422.17053	-46.9125595	-1.36172175	-6795.90088	1770.96143	-13603.3135	-1422.81726	4964.45752	30.4028587
   15.9000	3.00000000	0.507303303E-4	0.00000000	25.8397808	-0.00000000	0.00000000	-2.17542148	0.552635968	0.00000000	22.6217976	142.266296	16.9284630	1640.10388	-0.128510609	-0.229611471E-1	0.00000000	752.404297	-1093.73328	48.8095207	-137.903961	1338.57812	3315.80493	-1376.94873	-138.900879	2414.25610	319.585205	1854.95337	-275.815887	-4.29971409	-3371.82983	2304.43896	-666.157593	-1520.12268	-118.031708	22.4841137	-6779.65674	1394.10852	-18779.8418	-1521.00623	4937.28906	30.4520359
   16.0000	3.00000000	0.410420726E-4	0.00000000	25.6572666	-0.00000000	0.00000000	-2.41477323	0.694525003	0.00000000	22.8556213	152.385376	16.7977085	1630.83936	-0.153004542	-0.256753117E-1	0.00000000	774.184021	-1219.37402	31.3893013	-121.846786	1329.95410	3125.09082	-1849.97400	-133.964279	2435.74976	664.707153	1917.04846	-293.849762	-3.23507738	-3366.72339	2317.52539	-730.949036	-1587.05542	-210.422012	7.06027603	-6774.74561	2107.80298	-24120.4531	-1588.15710	4920.55518	30.5212173
   16.1000	3.00000000	0.239969404E-5	0.00000000	25.4505615	-0.00000000	0.00000000	-2.59958839	0.833842695	0.00000000	23.0717793	162.420258	16.6496964	1618.70142	-0.173915252	-0.284140874E-1	0.00000000	773.301941	-1322.49463	8.21650600	-99.9121399	1318.37061	2775.15576	-2441.88550	-129.519669	2146.38525	989.035156	1935.10254	-350.671722	-7.38701773	-3378.33911	2029.86487	-984.591003	-1691.18420	-206.231247	-15.8838110	-6786.64062	3104.74170	-26365.9590	-1692.38281	4897.88086	30.6084118
   16.2000	3.00000000	0.326043628E-4	0.00000000	25.2204094	-0.00000000	0.00000000	-2.75156140	0.986286640	0.00000000	23.2617874	172.360062	16.4776115	1600.56274	-0.191246346	-0.312689841E-1	0.00000000	726.419983	-1418.16992	-14.8583860	-74.5472565	1300.34412	2290.79419	-3006.86572	-126.549210	1860.26074	1368.21399	1940.08386	-394.686829	-22.0450325	-3393.09717	1760.85242	-1244.33789	-1838.82971	-207.261658	-18.7280598	-6801.65332	3572.30542	-28337.7793	-1840.07043	4861.45166	30.7250786
   16.3000	3.00000000	0.527202610E-4	0.00000000	24.9676247	-0.00000000	0.00000000	-2.89843297	1.14414573	0.00000000	23.4185257	182.189026	16.2846622	1578.84424	-0.205254450	-0.340636559E-1	0.00000000	666.246277	-1510.50317	-35.8119583	-47.6623039	1271.77576	1764.67297	-3489.00586	-124.112930	1806.13989	1669.58301	1895.85742	-398.568787	-26.6745358	-3399.41821	1695.17310	-1212.63452	-2082.64868	-277.193787	-26.8283653	-6808.11035	4122.90820	-31854.9902	-2083.99805	4819.88525	30.8814163
   16.4000	3.00000000	0.521769216E-4	0.00000000	24.6931267	-0.00000000	0.00000000	-3.03620815	1.28821671	0.00000000	23.5437317	191.902161	16.0927410	1558.33191	-0.216383353	-0.365596674E-1	0.00000000	616.480957	-1597.42554	-55.7470398	-22.5614834	1242.32019	1288.81873	-3987.92871	-120.796989	2004.54810	1783.01929	1595.39819	-419.078400	-20.9964104	-3399.02954	1879.75964	-1072.97705	-2107.43066	-306.885834	-38.0406609	-6807.88525	4657.67480	-33947.1484	-2108.98682	4787.20215	31.0757141
   16.5000	3.00000000	0.368351284E-4	0.00000000	24.3978882	-0.00000000	0.00000000	-3.12774563	1.41478467	0.00000000	23.6464672	201.500412	15.9023666	1541.47595	-0.224817693	-0.386332124E-1	0.00000000	557.842712	-1666.01318	-66.4361649	3.36617994	1211.51575	773.651428	-4261.53906	-116.913078	2187.11816	2005.17090	902.710510	-447.000305	-28.0519276	-3392.84717	2104.64526	-1265.33325	-1754.64758	-291.933746	-22.7766953	-6801.87500	4422.33057	-34462.9688	-1756.39758	4768.94189	31.2956753
   16.6000	3.00000000	0.200109425E-4	0.00000000	24.0829716	-0.00000000	0.00000000	-3.16661358	1.53033519	0.00000000	23.7335911	210.987091	15.7204218	1525.77991	-0.230566114	-0.401238315E-1	0.00000000	463.407623	-1708.59106	-64.3896942	28.2023087	1174.30762	208.054764	-4176.05518	-117.709885	2173.67139	2426.24976	18.1850586	-441.882416	-34.7219467	-3379.63428	2130.67896	-1737.19153	-1453.64221	-307.616089	-16.4734192	-6788.71631	4412.68945	-35479.4023	-1455.51050	4755.95996	31.5315609
   16.7000	3.00000000	0.866023220E-5	0.00000000	23.7494984	-0.00000000	0.00000000	-3.15498328	1.61388588	0.00000000	23.8046150	220.361923	15.5248499	1507.99036	-0.233737454	-0.409231484E-1	0.00000000	366.167084	-1720.28857	-61.8843918	49.5051880	1133.81506	-303.698059	-4046.99194	-120.255035	2019.15149	2683.16260	-783.687805	-433.817078	-27.8492565	-3368.37622	1978.29407	-2156.62598	-1296.45642	-317.278687	-41.6284752	-6777.47119	5213.89307	-36039.2109	-1298.36414	4738.16357	31.7841682
   16.8000	3.00000000	0.325525762E-4	0.00000000	23.3986607	-0.00000000	0.00000000	-3.10943604	1.64198554	0.00000000	23.8542347	229.613190	15.3114815	1486.40161	-0.234376177	-0.411909819E-1	0.00000000	320.301392	-1704.50085	-68.7513962	66.7124710	1091.59021	-644.666870	-4121.03271	-119.624725	1848.54297	2533.10938	-1356.65967	-443.636414	-31.5207825	-3368.49707	1829.15442	-2325.55469	-1150.90454	-294.505341	-45.9041138	-6777.63867	5392.83398	-35442.0625	-1152.75537	4711.11377	32.0617371
   16.9000	3.00000000	0.242608439E-4	0.00000000	23.0317249	-0.00000000	0.00000000	-3.06534052	1.62538242	0.00000000	23.8779030	238.735565	15.0967121	1462.80774	-0.232454970	-0.411046743E-1	0.00000000	325.596100	-1680.46924	-79.6548691	75.2281799	1045.12878	-734.566772	-4298.22754	-115.282082	1884.97852	2141.44385	-1682.75903	-438.877563	-38.8819046	-3375.76172	1888.27991	-2208.83716	-1053.96204	-300.177185	-29.3722553	-6784.87842	4921.96045	-35361.1172	-1055.79053	4681.19385	32.3719597
   17.0000	3.00000000	0.443766703E-5	0.00000000	22.6499996	-0.00000000	0.00000000	-3.04895759	1.58871078	0.00000000	23.8782749	247.730286	14.8877964	1441.35608	-0.228228658	-0.406512506E-1	0.00000000	374.610565	-1663.58228	-86.5870590	78.5149231	995.655518	-655.819824	-4402.42822	-107.843246	2115.39380	1790.70508	-1772.89600	-423.131287	-29.8568878	-3380.44629	2092.22339	-1936.90393	-1139.69690	-321.910919	-30.5120125	-6789.47021	4850.22461	-35472.9297	-1141.57959	4660.94482	32.7116203
   17.1000	3.00000000	0.398893872E-5	0.00000000	22.2548485	-0.00000000	0.00000000	-3.04486847	1.56101346	0.00000000	23.8635693	256.604218	14.6941862	1423.70312	-0.222104952	-0.396979861E-1	0.00000000	416.869263	-1653.84851	-88.9313736	81.3790741	944.750854	-591.330750	-4408.23633	-101.031006	2329.68457	1560.03613	-1717.63440	-424.516968	-20.1861439	-3379.35425	2267.87402	-1667.14954	-1355.75488	-302.616669	-31.4078255	-6788.31738	4723.18604	-34238.6094	-1357.64587	4654.06445	33.0683098
   17.2000	3.00000000	0.520533467E-5	0.00000000	21.8476925	-0.00000000	0.00000000	-3.02013040	1.56003785	0.00000000	23.8400097	265.364075	14.5046072	1407.77014	-0.214326620	-0.380386524E-1	0.00000000	394.762451	-1642.74707	-90.1060028	84.2357788	891.775696	-665.129761	-4386.22217	-98.6971664	2352.35181	1333.19788	-1714.90088	-420.036255	-22.9849262	-3374.83740	2286.41699	-1441.73364	-1464.62646	-282.950562	-15.9953604	-6783.71973	4117.13818	-32798.6289	-1466.40161	4652.59863	33.4320488
   17.3000	3.00000000	0.148012996E-4	0.00000000	21.4299717	-0.00000000	0.00000000	-2.97077823	1.57468259	0.00000000	23.8066139	274.008484	14.3087091	1389.75635	-0.205151036	-0.354652591E-1	0.00000000	330.654602	-1626.19324	-90.9092407	88.4597702	840.491943	-865.247009	-4369.08447	-99.7478409	2201.45581	1038.52148	-1887.82764	-391.198608	-19.5975571	-3371.59888	2133.56567	-1339.06335	-1423.90002	-293.552612	-17.5526981	-6780.32275	3905.76221	-32016.4590	-1425.50012	4644.21094	33.8043633
   17.4000	3.00000000	0.132040468E-4	0.00000000	21.0032043	-0.00000000	0.00000000	-2.91619062	1.58457839	0.00000000	23.7571220	282.531952	14.1004095	1368.30054	-0.195001245	-0.320076831E-1	0.00000000	267.489319	-1607.43835	-90.5449829	91.5875244	793.348083	-1051.71240	-4333.25000	-101.179115	2087.72729	707.834106	-2209.09497	-369.525940	-7.47593689	-3373.77759	2001.18335	-1492.73389	-1384.21802	-273.621796	-30.4402065	-6782.34912	3891.26147	-30253.7773	-1385.67346	4625.49854	34.1961021
   17.5000	3.00000000	0.582773419E-5	0.00000000	20.5689068	-0.00000000	0.00000000	-2.87144184	1.56977081	0.00000000	23.6872482	290.927216	13.8841286	1345.43640	-0.184306681	-0.280147418E-1	0.00000000	239.105667	-1585.99402	-88.8121033	89.2498856	748.124268	-1075.78687	-4260.92578	-100.590988	2135.68408	365.210938	-2572.74390	-360.271332	-6.87921381	-3380.90649	2044.31030	-1796.01819	-1431.64124	-221.939804	-11.5845213	-6789.36914	2917.31665	-27538.0801	-1432.98499	4603.97217	34.6153755
   17.6000	3.00000000	0.158910996E-5	0.00000000	20.1286354	-0.00000000	0.00000000	-2.83914924	1.51621842	0.00000000	23.5986099	299.195221	13.6784859	1324.22314	-0.173552752	-0.239382479E-1	0.00000000	270.614868	-1560.42444	-85.3668900	80.0946808	705.757507	-873.272278	-4175.77295	-96.3590393	2338.99634	8.30346680	-2818.40381	-335.996765	-5.74232960	-3389.52686	2235.60522	-1951.68701	-1540.10413	-205.245590	14.9581661	-6797.85742	1691.19666	-25795.2832	-1541.37854	4589.61328	35.0601959
   17.7000	3.00000000	0.325210908E-5	0.00000000	19.6839676	-0.00000000	0.00000000	-2.81005430	1.42966020	0.00000000	23.4975567	307.344238	13.4867811	1306.39136	-0.163449511	-0.202248171E-1	0.00000000	349.106995	-1528.47070	-81.3039322	66.2367325	666.496277	-503.513306	-4091.05005	-89.4280624	2557.50781	-378.970947	-2783.11719	-309.361786	9.03034210	-3397.27026	2423.55640	-1888.02954	-1556.03101	-206.965256	16.3131905	-6805.46436	1187.83691	-24662.8672	-1557.25464	4587.15381	35.5196877
   17.8000	3.00000000	0.546650790E-5	0.00000000	19.2364826	-0.00000000	0.00000000	-2.77051735	1.33283460	0.00000000	23.3897228	315.380829	13.3022528	1290.49744	-0.154652253	-0.172361247E-1	0.00000000	423.794128	-1489.53345	-77.1516418	48.4421120	627.615601	-74.0539856	-3983.30298	-83.0563278	2622.03174	-840.852905	-2497.10645	-300.750275	16.3310432	-3400.94849	2490.24365	-1804.28687	-1366.68079	-182.523026	21.7445545	-6809.07227	691.916077	-22970.2148	-1367.81323	4590.50830	35.9834557
   17.9000	3.00000000	0.230242017E-5	0.00000000	18.7878017	-0.00000000	0.00000000	-2.71780515	1.23812139	0.00000000	23.2748528	323.306488	13.1155071	1273.41467	-0.147394001	-0.150415553E-1	0.00000000	477.384277	-1447.02075	-71.1933594	28.3074741	590.410156	348.389069	-3835.26855	-78.3958817	2536.14966	-1367.60498	-2145.77588	-289.455109	13.8315163	-3396.44189	2433.11865	-1798.47009	-1099.87488	-165.018280	34.5775185	-6804.51221	120.389542	-21642.3164	-1100.89050	4588.68604	36.4517097
   18.0000	3.00000000	0.335852542E-5	0.00000000	18.3395252	-0.00000000	0.00000000	-2.65649033	1.14040482	0.00000000	23.1479092	331.117371	12.9190140	1253.64246	-0.141575471	-0.134759415E-1	0.00000000	531.128601	-1400.85303	-62.9620552	8.88944530	557.154419	753.662354	-3640.60645	-74.2050934	2449.31079	-1827.14050	-1800.57349	-268.043488	21.2259865	-3385.42432	2350.08374	-1791.05750	-902.992554	-172.296432	25.2037201	-6793.42676	221.796539	-21164.1836	-903.928650	4577.23145	36.9342117
   18.1000	3.00000000	0.395575671E-5	0.00000000	17.8932533	-0.00000000	0.00000000	-2.58378434	1.03654885	0.00000000	23.0044003	338.808197	12.7174873	1232.42102	-0.137005404	-0.124770515E-1	0.00000000	585.897095	-1347.16089	-54.2905693	-9.76912117	526.532471	1148.46680	-3411.79248	-70.3299637	2489.26416	-2102.17017	-1432.23132	-258.749146	28.9391422	-3376.44458	2385.85059	-1751.01013	-784.352661	-166.593353	18.0468655	-6784.40625	294.027069	-20475.3223	-785.260986	4561.39893	37.4402390
   18.2000	3.00000000	0.255465011E-5	0.00000000	17.4505844	-0.00000000	0.00000000	-2.49594688	0.930245161	0.00000000	22.8447437	346.380432	12.5259867	1212.46509	-0.133525178	-0.121632442E-1	0.00000000	631.463013	-1286.13464	-46.7822723	-28.4181652	498.777802	1521.91968	-3201.36890	-67.4525299	2680.98804	-2228.72656	-1082.77368	-258.409302	24.3182621	-3375.22876	2590.05005	-1701.78040	-735.733704	-152.299149	38.1128960	-6783.17871	-332.497620	-19674.6094	-736.655273	4550.99756	37.9696732
   18.3000	3.00000000	0.237676545E-5	0.00000000	17.0130959	-0.00000000	0.00000000	-2.39980912	0.828380823	0.00000000	22.6743736	353.843140	12.3526592	1195.82043	-0.131138504	-0.126601718E-1	0.00000000	669.459534	-1224.28003	-39.9021797	-44.9964256	476.178833	1840.03784	-3022.17578	-65.0794144	2926.56445	-2305.11011	-869.743530	-249.575317	24.0790462	-3380.98242	2825.67114	-1656.32617	-841.841370	-159.087616	48.6669273	-6788.90771	-618.691467	-19579.8828	-842.810120	4552.60156	38.5117149
   18.4000	3.00000000	0.246986201E-5	0.00000000	16.5823708	-0.00000000	0.00000000	-2.30436897	0.741970003	0.00000000	22.4996414	1.20596540	12.1907692	1181.93860	-0.129960448	-0.140339937E-1	0.00000000	685.780151	-1166.79810	-32.4214897	-60.1017685	457.851227	2091.36548	-2824.33618	-63.9959030	3061.09155	-2374.17993	-815.598694	-243.153564	30.5025749	-3390.04150	2923.09155	-1635.33130	-1121.67639	-165.574310	36.3493080	-6797.94873	-153.810913	-19616.8887	-1122.68713	4562.98389	39.0528831
   18.5000	3.00000000	0.248942456E-5	0.00000000	16.1599426	-0.00000000	0.00000000	-2.21460795	0.668817401	0.00000000	22.3220654	8.47134686	12.0256948	1167.79834	-0.129923627	-0.162304547E-1	0.00000000	679.004639	-1114.93750	-23.8286781	-77.2922745	442.663208	2335.49756	-2593.16772	-64.1110992	3004.68091	-2448.46753	-776.721863	-246.989334	25.1519489	-3399.32153	2852.88867	-1633.27905	-1409.23853	-157.547150	32.0518761	-6807.24121	232.121231	-19386.7930	-1410.25085	4570.32178	39.5893288
   18.6000	3.00000000	0.242454598E-5	0.00000000	15.7473230	-0.00000000	0.00000000	-2.13533831	0.583217382	0.00000000	22.1364498	15.6350126	11.8517542	1150.66785	-0.130716771	-0.189983882E-1	0.00000000	699.292969	-1064.72021	-15.1123819	-96.4298325	431.618073	2667.84473	-2373.46289	-63.3105888	2876.15918	-2533.69238	-565.129944	-245.016495	16.3635082	-3405.28955	2733.62036	-1623.38892	-1511.03564	-164.554703	28.3118649	-6813.21973	679.040283	-19666.3809	-1512.04761	4564.99902	40.1319542
   18.7000	3.00000000	0.461463105E-5	0.00000000	15.3459883	-0.00000000	0.00000000	-2.06560588	0.466085553	0.00000000	21.9359913	22.6920719	11.6713810	1131.16406	-0.132056400	-0.220582429E-1	0.00000000	778.060181	-1010.20508	-7.74396944	-117.148651	423.487518	3148.93896	-2186.69434	-60.1986046	2880.09253	-2623.22852	-140.651917	-237.528778	18.4345188	-3406.45581	2741.41748	-1673.93384	-1426.03650	-181.784546	10.3647013	-6814.38086	1505.43530	-20281.6875	-1427.11267	4550.70459	40.6960983
   18.8000	3.00000000	0.177076959E-5	0.00000000	14.9573689	-0.00000000	0.00000000	-1.99604511	0.326699495	0.00000000	21.7192860	29.6416531	11.4959345	1112.47314	-0.133794770	-0.253292825E-1	0.00000000	889.070251	-949.364685	-2.12023687	-139.908173	416.244690	3733.51489	-2021.38269	-56.2839851	3069.23535	-2679.32544	419.269226	-240.487656	16.1523361	-3403.68726	2950.52490	-1849.26941	-1240.53235	-176.490540	9.27109432	-6811.63330	1848.28223	-20308.5117	-1241.73608	4540.33105	41.2854958
   18.9000	3.00000000	0.143710440E-5	0.00000000	14.5828714	-0.00000000	0.00000000	-1.91816831	0.190249726	0.00000000	21.4914837	36.4904213	11.3359146	1097.09509	-0.135798618	-0.288808327E-1	0.00000000	990.419739	-886.411438	2.92713928	-161.690002	410.407135	4284.95654	-1865.19177	-53.0126152	3325.26245	-2659.30176	1002.16864	-245.392776	5.28638792	-3399.42139	3243.43555	-2055.42310	-1049.77783	-167.592712	26.0016670	-6807.39551	1721.08862	-20263.4980	-1051.13098	4542.96094	41.8884087
   19.0000	3.00000000	0.329352042E-5	0.00000000	14.2238264	-0.00000000	0.00000000	-1.82833505	0.800675303E-1	0.00000000	21.2592735	43.2469521	11.1868448	1084.52942	-0.137935132	-0.328271128E-1	0.00000000	1052.65417	-825.405090	8.88604832	-177.402588	406.593842	4657.83252	-1686.29272	-51.2969398	3464.38354	-2518.58496	1515.16101	-240.468948	1.66518891	-3396.84082	3404.38257	-2163.96338	-880.063721	-181.453613	20.8696270	-6804.82178	2261.07520	-20871.9824	-881.548706	4555.27637	42.4885941
   19.1000	3.00000000	0.527854809E-5	0.00000000	13.8815212	-0.00000000	0.00000000	-1.72330475	0.991372205E-2	0.00000000	21.0241756	49.9145546	11.0373383	1071.71021	-0.140059620	-0.372824147E-1	0.00000000	1048.41345	-767.236389	16.1599102	-187.312408	404.634674	4801.19971	-1458.62195	-51.7462463	3419.91479	-2235.97437	1877.95520	-239.820480	0.133829182E-1	-3397.92212	3376.27905	-2163.27759	-740.678528	-192.302887	0.141778797	-6805.92236	3328.64600	-21410.1895	-742.247131	4564.24365	43.0814857
   19.2000	3.00000000	0.542384259E-5	0.00000000	13.5571823	-0.00000000	0.00000000	-1.60501194	-0.307852272E-1	0.00000000	20.7809315	56.4897881	10.8784294	1056.12720	-0.141876489	-0.422016680E-1	0.00000000	991.863159	-710.271301	23.8120804	-193.982086	405.377777	4786.06201	-1209.11121	-53.7847557	3310.12158	-1855.54626	2044.70630	-248.730988	-11.5371494	-3401.03760	3297.16528	-2054.08569	-659.278137	-189.401169	-7.14275455	-6809.08154	4102.16943	-21547.2637	-660.890869	4560.28857	43.6793098
   19.3000	3.00000000	0.317348463E-5	0.00000000	13.2519617	-0.00000000	0.00000000	-1.48392129	-0.728853866E-1	0.00000000	20.5226631	62.9675102	10.7139606	1038.28003	-0.142956987	-0.472751036E-1	0.00000000	944.735291	-651.167969	30.3098869	-197.788879	409.056458	4745.05859	-983.758850	-55.4248810	3317.76953	-1463.87524	2029.82251	-251.154755	-19.6736412	-3402.75269	3321.26904	-1803.31970	-654.763916	-201.526901	-14.7850323	-6810.82422	4876.06787	-22027.2891	-656.436340	4546.84814	44.2991791
   19.4000	3.00000000	0.234698496E-5	0.00000000	12.9669666	-0.00000000	0.00000000	-1.36946750	-0.134302229	0.00000000	20.2476006	69.3475342	10.5543985	1021.18158	-0.142944857	-0.521038175E-1	0.00000000	938.365173	-589.462036	34.7884102	-201.259171	414.337158	4787.03564	-800.914917	-56.0582428	3507.38232	-1125.85400	1921.99255	-247.357666	-18.2061157	-3402.30957	3503.12573	-1500.52905	-702.178589	-222.216660	-29.4691010	-6810.38232	5769.14795	-22620.6250	-703.950195	4537.23877	44.9456978
   19.5000	3.00000000	0.371620854E-5	0.00000000	12.7032089	-0.00000000	0.00000000	-1.26496601	-0.209225953	0.00000000	19.9607525	75.6352692	10.4071732	1007.18103	-0.141621366	-0.563818365E-1	0.00000000	958.666687	-528.997559	37.8799515	-206.916092	420.664642	4925.03418	-651.503357	-55.9337692	3750.28662	-867.069458	1890.83765	-247.862335	-23.1789322	-3401.91235	3751.20557	-1353.98413	-740.274170	-220.859299	-26.9626522	-6809.99072	6118.63232	-22437.1270	-742.142517	4540.75781	45.6057930
   19.6000	3.00000000	0.558094280E-5	0.00000000	12.4616346	-0.00000000	0.00000000	-1.16933703	-0.284534931	0.00000000	19.6683636	81.8387756	10.2724657	995.685425	-0.138817444	-0.598774925E-1	0.00000000	985.909790	-472.871094	40.9711609	-213.111786	427.266418	5092.62402	-508.492706	-55.5405312	3887.71387	-685.369019	2068.30444	-243.659424	-31.8542652	-3403.46094	3902.68433	-1454.00464	-767.233032	-207.836075	-20.0432796	-6811.53174	6284.21387	-21733.4883	-769.164185	4553.53027	46.2620811
   19.7000	3.00000000	0.326833401E-5	0.00000000	12.2431087	-0.00000000	0.00000000	-1.07644606	-0.350719810	0.00000000	19.3719254	87.9622879	10.1381855	984.121582	-0.134411633	-0.624578074E-1	0.00000000	1004.94647	-419.707642	44.7037354	-217.188507	432.732452	5215.45703	-346.381439	-55.1747856	3872.52856	-537.189514	2415.42944	-227.018906	-31.5966930	-3407.63232	3883.40186	-1713.02417	-818.719055	-200.601151	-34.3884354	-6815.65234	6960.84277	-20986.2363	-820.671692	4563.62695	46.9094658
   19.8000	3.00000000	0.288903084E-5	0.00000000	12.0484085	-0.00000000	0.00000000	-0.976718068	-0.403250575	0.00000000	19.0667210	94.0028458	9.99560642	970.311462	-0.128349304	-0.641549528E-1	0.00000000	1002.50110	-366.257843	48.7545700	-218.599228	437.560364	5253.36621	-167.680923	-55.2344589	3790.56738	-342.619568	2763.44873	-209.895996	-32.3875427	-3414.26685	3799.62427	-1995.63550	-871.704773	-184.465469	-46.5262413	-6822.22754	7494.67627	-19800.2539	-873.626587	4546.91309	47.4029121
   19.9000	3.00000000	0.993999492E-5	0.00000000	11.8782377	-0.00000000	0.00000000	-0.863722801	-0.443478793	0.00000000	18.7468815	99.9563522	9.85007954	955.110901	-0.120600194	-0.650732890E-1	0.00000000	979.445190	-309.581635	52.5476036	-216.388321	442.574097	5189.62891	13.4558525	-55.4155197	3774.01929	-50.7471924	2977.41284	-195.951508	-39.8129311	-3421.20483	3797.03760	-2185.77393	-879.807739	-158.979553	-38.6929855	-6829.11328	7383.49121	-18172.1934	-881.658142	4475.68115	47.4029121
   20.0000	3.00000000	0.142824110E-4	0.00000000	11.7332039	-0.00000000	0.00000000	-0.737268031	-0.471917063	0.00000000	18.4114132	105.824837	9.71345234	940.691833	-0.111199245	-0.652902648E-1	0.00000000	939.785889	-248.707016	55.7902679	-209.244843	447.274811	5012.14404	195.619507	-55.5915985	3874.99683	324.051025	3023.39160	-175.906708	-39.2090569	-3424.67773	3900.64941	-2223.10376	-829.217712	-144.107330	-35.3468208	-6832.50830	7287.86377	-16662.1211	-830.978210	4408.11426	47.4029121
   20.1000	3.00000000	0.115763050E-4	0.00000000	11.6138258	-0.00000000	0.00000000	-0.601424396	-0.483068556	0.00000000	18.0642109	111.614632	9.58757305	928.722778	-0.100316487	-0.648812726E-1	0.00000000	874.567993	-186.924774	58.5471611	-198.184174	452.046265	4719.66895	376.681061	-55.7618790	4016.58276	725.150635	2908.22339	-153.883301	-32.0114822	-3422.68652	4035.49951	-2136.75537	-735.511841	-131.400177	-38.3034248	-6830.42822	7284.70898	-15055.4648	-737.144653	4352.03027	47.4029121
   20.2000	3.00000000	0.404047751E-5	0.00000000	11.5205288	-0.00000000	0.00000000	-0.463981479	-0.474835038	0.00000000	17.7102432	117.331947	9.47145557	918.696228	-0.881500989E-1	-0.638766363E-1	0.00000000	781.426697	-128.961578	61.1897240	-185.122131	457.954163	4339.41357	552.871887	-55.3934174	4071.66797	1100.05530	2649.58374	-137.168716	-32.1005974	-3416.45361	4101.97705	-1975.26270	-601.822876	-105.930069	-28.9225807	-6824.12549	6901.37451	-12959.9570	-603.262024	4305.04688	47.4029121
   20.3000	3.00000000	0.484228030E-5	0.00000000	11.4536467	-0.00000000	0.00000000	-0.333785951	-0.458732367	0.00000000	17.3503399	122.980736	9.35710144	908.621643	-0.748044252E-1	-0.621995740E-1	0.00000000	683.263794	-75.6965790	64.2407990	-171.640839	463.921906	3945.25269	734.082764	-54.5519218	4015.48145	1415.57959	2311.23340	-116.631241	-31.4852371	-3409.19653	4058.95044	-1759.84863	-439.676453	-83.6144485	-23.6155338	-6816.80078	6579.66162	-10822.5303	-440.876221	4257.83594	47.4029121
   20.4000	3.00000000	0.930375427E-5	0.00000000	11.4134245	-0.00000000	0.00000000	-0.215041310	-0.454716831	0.00000000	16.9803429	128.559647	9.23899078	896.971008	-0.603642389E-1	-0.597909465E-1	0.00000000	614.899536	-23.4003162	67.0029068	-158.970779	468.760193	3629.71387	911.228943	-53.4542427	3921.12891	1649.27649	1995.30627	-88.2459793	-23.0989208	-3405.06641	3959.74146	-1554.57349	-315.416229	-69.3275986	-31.9042130	-6812.59229	6554.52100	-8778.78613	-316.367157	4203.23730	47.4029121
   20.5000	3.00000000	0.898418784E-5	0.00000000	11.3999996	-0.00000000	0.00000000	-0.104951188	-0.471450150	0.00000000	16.5950356	134.067444	9.12046814	884.224182	-0.449971594E-1	-0.567192510E-1	0.00000000	583.554077	29.3669281	68.7974396	-149.549026	472.996887	3447.81348	1057.09729	-52.0748711	3912.34766	1801.64661	1784.98291	-62.4015427	-17.6568871	-3406.94214	3941.62158	-1453.00452	-302.809235	-41.0279808	-27.7182560	-6814.40576	6097.71436	-6230.76562	-303.525146	4143.50391	47.4029121
   20.6000	3.00000000	0.534120772E-5	0.00000000	11.3999996	-0.00000000	0.00000000	0.142684649E-2	-0.504743040	0.00000000	16.1932831	139.505234	9.00723362	872.356873	-0.289534759E-1	-0.531286858E-1	0.00000000	581.725952	83.7264709	69.8762436	-141.953903	476.094666	3360.87720	1180.97070	-50.5057030	4009.11572	1906.60303	1702.49487	-38.3080254	-16.5083351	-3414.63770	4025.71509	-1454.72241	-416.516083	-1.43301809	-8.04489708	-6822.06445	5139.84180	-3282.43115	-417.011414	4087.89551	47.4029121
   20.7000	3.00000000	0.209419591E-5	0.00000000	11.3999996	-0.00000000	0.00000000	0.110398635	-0.538021743	0.00000000	15.7787952	144.878418	8.90504169	862.688293	-0.125615504E-1	-0.491967276E-1	0.00000000	583.110229	140.011963	71.2959747	-133.271332	476.741730	3263.18335	1321.51746	-48.7624245	4132.29199	2011.87915	1687.83850	-7.05833054	-7.83569050	-3425.39062	4116.08496	-1479.90625	-592.800354	28.1539440	0.345119596	-6832.78906	4446.05957	-567.589478	-593.081360	4042.59033	47.4029121
   20.8000	3.00000000	0.101968462E-4	0.00000000	11.3999996	-0.00000000	0.00000000	0.228292972	-0.550538838	0.00000000	15.3559551	150.192825	8.81053638	854.676147	0.378547562E-2	-0.451539978E-1	0.00000000	551.494263	196.268570	73.3162994	-121.465981	475.885468	3047.11377	1483.14368	-46.6492119	4175.79932	2143.47778	1627.79565	25.1280842	2.31631613	-3435.53955	4128.51953	-1490.05542	-721.746399	55.3267746	2.52605104	-6842.92578	3928.24341	2071.83740	-721.815247	4005.04663	47.4029121
   20.9000	3.00000000	0.167320904E-4	0.00000000	11.3999996	-0.00000000	0.00000000	0.355986238	-0.532032132	0.00000000	14.9248505	155.451431	8.71770191	846.494812	0.197419804E-1	-0.412009209E-1	0.00000000	469.588531	250.458008	75.8317337	-106.095856	474.782745	2670.31567	1654.88818	-43.9934425	4120.61914	2302.56738	1443.64392	50.9391823	4.83603859	-3441.37964	4068.43628	-1483.86230	-725.650696	91.4563446	13.8731527	-6848.78564	3193.95093	4908.49902	-725.521790	3966.70630	47.4029121
   21.0000	3.00000000	0.167740691E-4	0.00000000	11.3999996	-0.00000000	0.00000000	0.487921834	-0.492258370	0.00000000	14.4807158	160.653244	8.62124729	836.912781	0.350801460E-1	-0.374486893E-1	0.00000000	359.484070	303.097504	78.5514450	-87.3238220	472.827637	2177.18823	1837.05469	-40.7007675	4040.58057	2467.41699	1148.54834	77.6012192	9.21485424	-3440.51929	3989.33276	-1439.22046	-623.273682	121.176743	19.8352470	-6847.96045	2632.17432	7491.54736	-622.965393	3921.80176	47.4029121
   21.1000	3.00000000	0.101539799E-4	0.00000000	11.3999996	-0.00000000	0.00000000	0.616711080	-0.448719203	0.00000000	14.0178528	165.797089	8.52541924	826.451233	0.496218689E-1	-0.340275578E-1	0.00000000	252.374069	352.840851	80.8229370	-67.4288864	470.106750	1668.58093	2010.85669	-37.4214897	4039.59009	2597.83887	796.293335	106.595230	19.1810341	-3433.97217	3981.49219	-1354.00964	-482.230591	140.564575	17.9359283	-6841.45557	2300.35107	9692.88770	-481.753784	3872.77905	47.4029121
   21.2000	3.00000000	0.154571558E-5	0.00000000	11.3999996	-0.00000000	0.00000000	0.729364514	-0.411958486	0.00000000	13.5348396	170.884674	8.43448448	816.925415	0.631851628E-1	-0.311611090E-1	0.00000000	167.531906	398.947052	81.0756302	-49.1691017	467.532654	1232.35498	2123.50586	-34.6149979	4133.28613	2640.11694	412.273468	128.370880	22.9056072	-3425.89282	4080.94971	-1242.20349	-328.103027	166.197510	29.9109039	-6833.43018	1630.40015	11949.6270	-327.464996	3828.14185	47.4029121
   21.3000	3.00000000	0.102214708E-4	0.00000000	11.3999996	-0.00000000	0.00000000	0.799903512	-0.380701482	0.00000000	13.0350475	175.920868	8.35475349	809.409424	0.756121203E-1	-0.290838853E-1	0.00000000	114.015137	426.647522	81.3640366	-33.6444931	464.442139	905.730469	2207.86426	-31.4751205	4243.04980	2600.75732	79.6822357	146.426132	22.5395355	-3420.15479	4199.39355	-1118.03857	-229.554016	192.210129	46.3754730	-6827.76123	924.937744	14082.8086	-228.767273	3792.92334	47.4029121
   21.4000	3.00000000	0.130456101E-4	0.00000000	11.3999996	-0.00000000	0.00000000	0.832973182	-0.353742629	0.00000000	12.5222692	180.911697	8.28153896	803.403381	0.868069008E-1	-0.279720128E-1	0.00000000	84.6284332	437.970337	80.7541962	-21.1464882	459.791595	677.150024	2243.31519	-28.6970348	4283.31689	2469.11523	-188.922150	166.268997	27.8259983	-3420.09790	4233.16699	-942.292175	-185.712784	206.116714	43.8329277	-6827.77002	862.510498	15734.1182	-184.790710	3764.78003	47.4029121
   21.5000	3.00000000	0.559417958E-5	0.00000000	11.3999996	-0.00000000	0.00000000	0.856638193	-0.332241893	0.00000000	11.9957247	185.858154	8.20593929	797.087646	0.966810808E-1	-0.279403683E-1	0.00000000	68.1517639	445.868317	77.2656403	-10.2505398	453.801941	500.795563	2191.63062	-26.0517178	4212.67725	2255.99048	-401.074707	182.558182	29.3924770	-3426.00073	4161.68457	-734.972839	-165.267563	217.485779	37.3694077	-6833.73486	1056.02649	17159.9785	-164.240372	3735.18311	47.4029121
   21.6000	3.00000000	0.288532601E-5	0.00000000	11.3999996	-0.00000000	0.00000000	0.897361219	-0.316033959	0.00000000	11.4479084	190.758133	8.12690544	789.030518	0.105102286	-0.289407745E-1	0.00000000	53.0091515	462.781067	73.4816971	0.497449040	446.596283	331.113312	2135.99756	-22.8011875	4117.41309	2069.96021	-510.380615	193.408951	23.8889122	-3434.65356	4072.33813	-585.537842	-221.785049	233.584518	37.9348679	-6842.45459	1182.35876	18554.6973	-220.679886	3697.42334	47.4029121
   21.7000	3.00000000	0.756237932E-5	0.00000000	11.3999996	-0.00000000	0.00000000	0.968207121	-0.301833868	0.00000000	10.8699322	195.610489	8.04828262	780.009216	0.111930266	-0.307545662E-1	0.00000000	29.6936817	494.917114	75.0946350	12.1911602	438.084320	129.997742	2237.90576	-19.2288704	4122.39844	2031.57007	-524.030823	205.477859	23.1156673	-3442.64380	4062.19189	-552.824829	-412.410980	245.908569	30.7646065	-6850.49805	1587.28137	19672.3828	-411.224335	3655.14868	47.4029121
   21.8000	3.00000000	0.980732420E-5	0.00000000	11.3999996	-0.00000000	0.00000000	1.08002496	-0.282689542	0.00000000	10.2588034	200.417450	7.97650766	772.215027	0.117166907	-0.331570506E-1	0.00000000	-16.4175224	546.537720	83.0623169	25.8566227	428.482300	-146.322083	2532.42920	-15.3235464	4240.10400	2125.15430	-582.098572	219.497528	24.2352505	-3448.04834	4160.69336	-631.104614	-598.375793	253.646347	23.0709724	-6855.94971	2042.79333	20489.5449	-597.098694	3618.62793	47.4029121
   21.9000	3.00000000	0.106723292E-4	0.00000000	11.3999996	-0.00000000	0.00000000	1.24396968	-0.254402101	0.00000000	9.61803818	205.184357	7.91472673	766.816956	0.121068038	-0.359968767E-1	0.00000000	-94.9345856	621.461426	92.5386581	41.4371300	418.117676	-516.740417	2895.33472	-10.7124195	4359.55176	2222.41064	-798.299805	230.448013	17.2824821	-3450.26221	4289.34863	-768.769104	-637.665161	263.864929	28.5771141	-6858.20264	2182.91187	21226.7422	-636.313293	3593.33447	47.4029121
   22.0000	3.00000000	0.107705500E-4	0.00000000	11.3999996	-0.00000000	0.00000000	1.45149279	-0.220732853	0.00000000	8.95045567	209.916611	7.86031151	762.771606	0.124062650	-0.391766280E-1	0.00000000	-191.571671	716.027832	99.3943634	58.1085892	407.227356	-943.526367	3213.23975	-5.18807364	4377.95312	2231.88232	-1138.21082	239.396606	10.1407757	-3449.26172	4331.59082	-896.196777	-521.626831	272.343140	27.4459419	-6857.23633	2560.41284	21812.1855	-520.223816	3574.37720	47.4029121
   22.1000	3.00000000	0.590883246E-5	0.00000000	11.3999996	-0.00000000	0.00000000	1.66774952	-0.187814459	0.00000000	8.25053215	214.617035	7.80758953	758.164001	0.126574367	-0.426896214E-1	0.00000000	-281.465546	814.867432	104.679306	73.7057343	396.166473	-1341.56262	3492.20166	0.974239826	4311.55371	2165.35913	-1467.42249	248.980820	8.00206852	-3446.31494	4282.31006	-973.721130	-378.213623	274.464661	10.5679131	-6854.31689	3421.84570	22163.3652	-376.769653	3552.78345	47.4029121
   22.2000	3.00000000	0.404820094E-5	0.00000000	11.3999996	-0.00000000	0.00000000	1.85710895	-0.161951065	0.00000000	7.50454187	219.285507	7.75391722	752.312195	0.128985345	-0.465928018E-1	0.00000000	-343.839630	902.139221	111.466110	85.6611862	385.046051	-1622.39380	3787.62256	6.93964767	4261.34326	2066.46582	-1692.58716	256.710907	0.806598961	-3443.91016	4250.61377	-1000.73126	-332.670135	277.248322	1.88866544	-6851.94580	4103.00928	22516.1113	-331.180237	3525.36011	47.4029121
   22.3000	3.00000000	0.128460688E-4	0.00000000	11.3999996	-0.00000000	0.00000000	2.01249790	-0.152009413	0.00000000	6.70968533	223.922180	7.70257330	746.317322	0.131742761	-0.508641079E-1	0.00000000	-361.769257	975.998108	119.528412	93.3200836	373.217499	-1741.23669	4092.12207	11.7304344	4300.20508	1932.23828	-1838.36987	263.108429	-9.63688850	-3443.83008	4307.74854	-980.584229	-353.471893	282.261139	2.58163428	-6851.90234	4551.83545	22965.9863	-351.902863	3497.26758	47.4029121
   22.4000	3.00000000	0.113519682E-4	0.00000000	11.3999996	-0.00000000	0.00000000	2.15279579	-0.160606936	0.00000000	5.90968418	228.530304	7.65949631	741.760681	0.135347798	-0.553608835E-1	0.00000000	-337.514893	1046.40320	125.770203	97.9655457	360.217316	-1728.97156	4337.94580	15.0377731	4406.25879	1738.99182	-1969.45630	272.352448	-13.0153437	-3445.97900	4418.96924	-921.700317	-359.731781	284.135101	-6.61424541	-6854.09131	5278.81836	23426.2988	-358.035156	3475.91724	47.4029121
   22.5000	3.00000000	0.488244086E-5	0.00000000	11.3999996	-0.00000000	0.00000000	2.29364347	-0.171589524	0.00000000	5.10968304	233.115494	7.62591839	739.119690	0.140183970	-0.598644614E-1	0.00000000	-304.215790	1116.96350	129.466797	101.305290	345.872162	-1679.61450	4511.14502	17.6640320	4492.71143	1502.60718	-2095.79639	282.902222	-15.8042879	-3448.96509	4511.58105	-854.313354	-341.032135	288.696442	-17.2542305	-6857.13135	6050.66357	24105.3164	-339.185333	3463.54346	47.4029121
   22.6000	3.00000000	0.340182783E-5	0.00000000	11.3999996	-0.00000000	0.00000000	2.43278003	-0.164733052	0.00000000	4.30968189	237.682724	7.59882164	737.366577	0.146459103	-0.640483126E-1	0.00000000	-295.698608	1183.76245	133.511612	105.181847	330.359650	-1689.80847	4688.33350	21.6620483	4499.54590	1277.62964	-2198.07520	293.153137	-24.2575855	-3451.86670	4534.90674	-805.154785	-334.356171	301.945587	-19.8768444	-6860.11133	6588.09814	25192.9746	-332.362335	3455.32764	47.4029121
   22.7000	3.00000000	0.730461761E-5	0.00000000	11.3999996	-0.00000000	0.00000000	2.56401920	-0.133724853	0.00000000	3.50968051	242.234238	7.57261086	735.138733	0.154326394	-0.675076768E-1	0.00000000	-319.433258	1244.53662	140.539810	110.683372	314.688354	-1795.58301	4940.22656	27.7218132	4450.38525	1106.16772	-2281.05859	308.165131	-28.9362087	-3454.39233	4492.07715	-772.395569	-367.720001	316.108795	-29.6111202	-6862.72852	7249.81934	26491.6289	-365.570007	3444.88647	47.4029121
   22.8000	3.00000000	0.898731560E-5	0.00000000	11.3999996	-0.00000000	0.00000000	2.69356847	-0.861506388E-1	0.00000000	2.70969391	246.769501	7.54487705	732.003174	0.163947895	-0.699430928E-1	0.00000000	-363.007294	1303.73071	149.252014	117.668533	299.447754	-1970.81396	5239.53076	35.2644768	4413.20654	952.051880	-2388.69702	329.486481	-29.0264339	-3456.93994	4453.80371	-764.581238	-386.119904	329.324097	-43.0258179	-6865.38818	7890.93506	27970.6660	-383.789001	3430.19165	47.4029121
   22.9000	3.00000000	0.734620926E-5	0.00000000	11.3999996	-0.00000000	0.00000000	2.83034348	-0.339717120E-1	0.00000000	1.90969193	251.288605	7.51962090	728.749084	0.175430208	-0.712659359E-1	0.00000000	-409.672821	1367.06116	156.800034	124.544121	284.573425	-2152.96729	5512.27148	42.5589180	4442.62939	741.367371	-2537.19360	351.671753	-33.0743446	-3460.20703	4496.45215	-796.702087	-323.674438	352.097412	-40.4857750	-6868.79980	7954.56885	29933.9375	-321.132446	3414.94287	47.4029121
   23.0000	3.00000000	0.342580938E-5	0.00000000	11.3999996	-0.00000000	0.00000000	2.97112942	0.108922487E-1	0.00000000	1.10968888	255.794342	7.50070763	726.623108	0.188767254	-0.715607554E-1	0.00000000	-439.654449	1433.30920	162.643936	129.602097	270.307220	-2273.27856	5738.64600	48.0250244	4526.19922	463.685516	-2680.20898	374.678009	-36.5572243	-3464.12451	4597.06836	-834.766602	-202.401108	382.647827	-31.3110237	-6872.88281	7708.28516	32327.5176	-199.610062	3404.98291	47.4029121
   23.1000	3.00000000	0.107935421E-5	0.00000000	11.3999996	-0.00000000	0.00000000	3.10628223	0.416306928E-1	0.00000000	0.309686244	260.290955	7.48973942	726.770569	0.203826994	-0.710414276E-1	0.00000000	-438.840485	1500.79712	168.101334	132.354721	256.583282	-2298.65918	5949.50439	49.9536591	4567.75000	153.956741	-2757.97656	402.733734	-34.3577881	-3467.99927	4644.63525	-817.355530	-69.8521271	410.001953	-31.0282669	-6876.96094	7624.33447	34825.9766	-66.7963257	3318.11621	46.1841660
   23.2000	3.00000000	0.559259388E-5	0.00000000	11.3999996	-0.00000000	0.00000000	3.23437858	0.372212715E-1	0.00000000	0.00000000	264.785889	7.49986219	728.861572	0.220391423	-0.699391663E-1	0.00000000	-412.082367	1565.65381	174.111893	135.661270	243.036560	-2290.94678	6178.10254	47.5099602	4458.31201	-97.3370209	-2739.49072	433.358917	-34.3618469	-3470.61108	4539.18262	-730.904297	-15.3093300	437.021179	-31.6723232	-6879.81689	7542.05078	37480.4844	-12.0395403	3219.58203	44.6841850
   23.3000	3.00000000	0.724504025E-5	0.00000000	11.3999996	-0.00000000	0.00000000	3.35828948	0.257738456E-1	0.00000000	0.00000000	269.292908	7.51799250	731.324890	0.238207713	-0.683267787E-1	0.00000000	-423.201965	1625.04419	179.355118	132.335037	229.592941	-2237.68359	6387.31689	43.7087173	4318.22266	-323.346191	-2682.08301	463.315277	-33.5143089	-3471.09497	4397.31738	-628.253479	-11.4684019	470.598877	-32.5274544	-6880.57617	7419.47461	40457.8555	-8.00099468	3122.02734	43.1842308
   23.4000	3.00000000	0.525997393E-5	0.00000000	11.3999996	-0.00000000	0.00000000	3.46411133	0.952174608E-2	0.00000000	0.00000000	273.802063	7.51356411	732.436890	0.256962985	-0.661139116E-1	0.00000000	-410.839172	1676.90686	181.870728	131.513870	215.096329	-2196.33130	6512.25732	38.4016991	4011.95850	-560.220764	-2606.68286	493.746857	-36.6000404	-3468.67139	4099.71289	-518.789856	15.7499161	506.618164	-31.3729134	-6878.47217	7216.70312	43611.2383	19.3103561	3018.16333	41.6842537
   23.5000	3.00000000	0.289957427E-6	0.00000000	11.3999996	-0.00000000	0.00000000	3.53294325	-0.763604790E-2	0.00000000	0.00000000	278.313599	7.52612734	730.874512	0.276131630	-0.630750507E-1	0.00000000	-387.479279	1709.93372	181.587204	130.873627	201.297653	-2149.64551	6534.88770	34.9656334	3807.73560	-772.474365	-2545.47925	526.054871	-28.2890072	-3464.36938	3879.90845	-429.269012	30.5073853	540.649536	-42.1388512	-6874.51465	7219.84961	46761.1094	34.1903458	2903.34619	40.1842728
   23.6000	3.00000000	0.473950922E-5	0.00000000	11.3999996	-0.00000000	0.00000000	3.54925990	-0.130059710E-1	0.00000000	0.00000000	282.830475	7.52818346	730.379700	0.294890016	-0.590994544E-1	0.00000000	-381.256592	1714.26855	180.825134	128.556168	188.644974	-2115.05859	6497.20020	35.9715843	3794.78638	-938.018616	-2490.76782	554.877808	-20.8666973	-3461.02466	3845.68921	-370.210205	-37.5535164	579.233337	-37.1551819	-6871.52832	6644.54980	49990.6875	-33.7063293	2793.08545	38.6842918
   23.7000	3.00000000	0.566016342E-5	0.00000000	11.3999996	-0.00000000	0.00000000	3.51854205	-0.113415401E-1	0.00000000	0.00000000	287.350800	7.54532290	732.212830	0.312264770	-0.542156808E-1	0.00000000	-369.755676	1700.67847	177.686417	129.884003	175.928131	-2142.64600	6386.74707	36.3368111	3761.86060	-1155.53955	-2386.13184	579.126831	-23.3441925	-3460.50244	3819.60889	-312.235870	2.99219489	618.445618	-10.5298471	-6871.36816	5381.59473	53074.4336	6.91360760	2691.51978	37.1843109
   23.8000	3.00000000	0.456057387E-5	0.00000000	11.3999996	-0.00000000	0.00000000	3.45831013	0.612173602E-2	0.00000000	0.00000000	291.888153	7.57723236	736.101868	0.327261001	-0.485470071E-1	0.00000000	-391.315247	1673.49255	173.190994	128.996811	165.386490	-2195.82178	6226.02881	39.6924477	3712.85669	-1382.48413	-2212.55884	601.696899	-11.7314625	-3462.78882	3755.60791	-220.946930	102.941399	646.219666	-7.75129557	-6873.97510	4680.07080	55561.4375	106.898003	2596.67139	35.6843567
   23.9000	3.00000000	0.352758025E-5	0.00000000	11.3999996	-0.00000000	0.00000000	3.38347673	0.276107173E-1	0.00000000	0.00000000	296.440155	7.59567261	740.205200	0.338863224	-0.424318798E-1	0.00000000	-416.012939	1637.43115	169.577591	128.518448	156.092941	-2265.57812	6074.94678	42.6873856	3473.39478	-1547.98999	-2031.72266	619.076660	-3.27994585	-3467.28345	3505.72412	-139.582642	164.213333	666.128479	-7.57103872	-6878.73535	4047.60059	57436.6016	167.990967	2501.38550	34.1843758
   24.0000	3.00000000	0.319973719E-5	0.00000000	11.3999996	-0.00000000	0.00000000	3.30562186	0.391839892E-1	0.00000000	0.00000000	301.004211	7.61757231	741.528198	0.346144259	-0.362023674E-1	0.00000000	-429.600067	1599.29858	167.572250	125.294655	147.068130	-2261.88354	5979.08936	44.7278633	3173.50195	-1649.91309	-1828.41992	624.661072	-3.07688785	-3472.03247	3209.50659	-61.4820213	203.898972	686.035828	5.29574966	-6883.64453	3074.81689	58806.3594	207.355896	2395.89819	32.6843948
   24.1000	3.00000000	0.233615515E-5	0.00000000	11.3999996	-0.00000000	0.00000000	3.24737668	0.260889605E-1	0.00000000	0.00000000	305.578217	7.62645960	741.179688	0.348486990	-0.300987251E-1	0.00000000	-412.360413	1572.18115	166.078888	117.226776	138.806931	-2108.85107	5913.35986	45.1891098	3001.30200	-1718.51709	-1552.70667	623.215271	5.00456429	-3474.25659	3025.90649	77.6679764	254.482834	691.213562	9.95121479	-6885.90332	2308.99976	59187.7148	257.672058	2284.86841	31.1843891
   24.2000	3.00000000	0.406119307E-5	0.00000000	11.3999996	-0.00000000	0.00000000	3.22731686	-0.186160263E-1	0.00000000	0.00000000	310.156799	7.63921881	741.209229	0.345600635	-0.243856516E-1	0.00000000	-340.609100	1565.96582	164.466095	108.504005	130.841293	-1840.67737	5858.69434	41.7622375	2926.45435	-1780.90613	-1191.28540	617.601318	14.9362288	-3472.23560	2940.26294	283.019348	361.597412	674.693604	15.1973181	-6883.80029	1547.72339	58356.3203	364.555359	2175.04932	29.6843815
   24.3000	3.00000000	0.281627422E-5	0.00000000	11.3999996	-0.00000000	0.00000000	3.24997830	-0.682485849E-1	0.00000000	0.00000000	314.748932	7.66862726	743.616638	0.337487012	-0.192834921E-1	0.00000000	-277.283508	1580.13489	162.922485	96.3867493	122.309235	-1525.59131	5838.97119	38.4934998	2952.97803	-1860.98523	-887.287842	603.559509	20.6157818	-3466.72266	2962.55664	394.068634	462.593231	652.520996	31.3002682	-6878.08154	537.226318	56772.6680	465.342407	2071.85254	28.1844063
   24.4000	3.00000000	0.111738132E-5	0.00000000	11.3999996	-0.00000000	0.00000000	3.30510950	-0.106460124	0.00000000	0.00000000	319.359100	7.69951200	748.590210	0.324507713	-0.148945441E-1	0.00000000	-238.640991	1609.87207	163.021484	85.6505051	113.464104	-1280.90588	5894.80176	36.6831779	2875.80249	-1922.96899	-753.249817	579.351501	22.5759029	-3459.88989	2877.94678	350.135040	433.472595	632.870056	44.9587708	-6870.93213	-298.028351	54711.6641	435.912018	1974.70691	26.6844006
